4001.37	-10.4953
4000.9	-10.4953
4000.42	47.222
3999.94	0
3999.47	-10.4908
3998.99	-10.4893
3998.51	-5.2439
3998.04	31.4589
3997.56	0
3997.08	10.4833
3996.6	15.7228
3996.13	15.7205
3995.65	-5.23943
3995.17	15.716
3994.7	-5.23794
3994.22	36.6603
3993.74	-15.7093
3993.26	10.4714
3992.79	15.7049
3992.31	47.1079
3991.83	26.1673
3991.35	10.4654
3990.88	5.23198
3990.4	-10.4625
3989.92	47.0744
3989.44	-5.22974
3988.96	26.145
3988.49	-5.22825
3988.01	5.22751
3987.53	-5.22677
3987.05	26.1301
3986.57	20.9011
3986.09	20.8981
3985.61	5.22379
3985.14	0
3984.66	26.1115
3984.18	36.5509
3983.7	-10.4416
3983.22	15.6602
3982.74	-31.316
3982.26	20.8743
3981.78	-5.21784
3981.3	15.6513
3980.83	5.21635
3980.35	10.4312
3979.87	-15.6446
3979.39	31.2848
3978.91	15.6401
3978.43	31.2758
3977.95	15.6357
3977.47	5.21116
3976.99	-5.21041
3976.51	46.887
3976.03	5.20893
3975.55	15.6246
3975.07	52.0744
3974.59	20.8268
3974.11	20.8238
3973.63	15.6157
3973.15	5.20448
3972.67	31.2224
3972.19	-15.609
3971.71	-10.4045
3971.23	5.20151
3970.74	10.4015
3970.26	15.6001
3969.78	-10.3986
3969.3	25.9927
3968.82	25.989
3968.34	5.19706
3967.86	5.19632
3967.38	25.9779
3966.9	15.5845
3966.42	15.5823
3965.93	15.5801
3965.45	15.5779
3964.97	31.1513
3964.49	-36.338
3964.01	0
3963.53	20.7586
3963.04	-5.18892
3962.56	0
3962.08	-5.18744
3961.6	0
3961.12	-10.3719
3960.63	41.4817
3960.15	31.1069
3959.67	25.9187
3959.19	31.098
3958.71	10.3645
3958.22	5.18152
3957.74	10.3616
3957.26	20.7202
3956.77	36.2551
3956.29	-15.5357
3955.81	-5.17783
3955.33	25.8854
3954.84	20.7054
3954.36	5.17561
3953.88	5.17487
3953.39	5.17413
3952.91	5.17339
3952.43	5.17266
3951.94	15.5158
3951.46	15.5135
3950.98	31.0226
3950.49	20.6788
3950.01	36.1828
3949.53	41.3458
3949.04	20.67
3948.56	36.1673
3948.07	20.6641
3947.59	15.4958
3947.11	0
3946.62	0
3946.14	15.4892
3945.65	5.16233
3945.17	36.1311
3944.69	36.126
3944.2	0
3943.72	15.4781
3943.23	15.4759
3942.75	10.3158
3942.26	15.4715
3941.78	15.4693
3941.29	0
3940.81	15.4649
3940.32	25.7711
3939.84	25.7674
3939.35	20.611
3938.87	30.9121
3938.38	41.2102
3937.9	15.4516
3937.41	10.2996
3936.93	36.0435
3936.44	36.0383
3935.95	10.2952
3935.47	5.14686
3934.98	46.3152
3934.5	5.14539
3934.01	5.14466
3933.52	25.7196
3933.04	15.4296
3932.55	-10.2849
3932.07	-5.14172
3931.58	0
3931.09	30.8415
3930.61	5.13951
3930.12	20.5551
3929.63	20.5522
3929.15	5.13731
3928.66	0
3928.17	15.4075
3927.69	10.2702
3927.2	15.4031
3926.71	20.5346
3926.23	10.2658
3925.74	10.2643
3925.25	25.6572
3924.76	15.3921
3924.28	30.7798
3923.79	0
3923.3	46.1565
3922.81	20.5111
3922.33	30.7622
3921.84	35.8841
3921.35	10.2511
3920.86	51.2484
3920.38	20.4964
3919.89	15.3701
3919.4	20.4905
3918.91	35.8533
3918.42	15.3635
3917.94	46.0839
3917.45	5.11971
3916.96	35.8328
3916.47	30.7094
3915.98	0
3915.49	35.8174
3915	0
3914.52	5.11531
3914.03	15.3437
3913.54	10.2277
3913.05	0
3912.56	15.3372
3912.07	25.5583
3911.58	10.2218
3911.09	15.3306
3910.6	10.2189
3910.11	15.3262
3909.62	25.54
3909.14	45.9654
3908.65	-5.10653
3908.16	20.4232
3907.67	25.5254
3907.18	25.5217
3906.69	20.4144
3906.2	-10.2058
3905.71	30.6129
3905.22	15.3043
3904.73	30.6041
3904.24	0
3903.75	5.09923
3903.26	40.788
3902.77	25.4888
3902.27	-5.09703
3901.78	5.0963
3901.29	15.2867
3900.8	5.09484
3900.31	10.1882
3899.82	-10.1868
3899.33	5.09266
3898.84	5.09193
3898.35	0
3897.86	5.09047
3897.37	15.2692
3896.87	-15.267
3896.38	30.5297
3895.89	10.1751
3895.4	20.3473
3894.91	15.2583
3894.42	20.3415
3893.93	0
3893.43	5.08391
3892.94	0
3892.45	40.6596
3891.96	-25.4086
3891.47	0
3890.97	-10.1605
3890.48	5.07954
3889.99	5.07881
3889.5	-10.1562
3889.01	10.1547
3888.51	20.3065
3888.02	40.6072
3887.53	10.1503
3887.03	5.07444
3886.54	10.1474
3886.05	0
3885.56	5.07226
3885.06	25.3576
3884.57	10.1416
3884.08	0
3883.58	45.6241
3883.09	5.06862
3882.6	0
3882.1	10.1343
3881.61	50.6644
3881.12	15.1971
3880.62	20.2599
3880.13	35.4498
3879.64	30.3812
3879.14	-5.06281
3878.65	20.2483
3878.15	0
3877.66	-10.1213
3877.17	-15.1797
3876.67	50.5918
3876.18	-10.1169
3875.68	10.1154
3875.19	20.228
3874.7	40.4502
3874.2	5.05555
3873.71	15.1645
3873.21	25.2705
3872.72	30.3202
3872.22	10.1053
3871.73	40.4154
3871.23	-5.0512
3870.74	20.2019
3870.24	25.2487
3869.75	50.4902
3869.25	65.6278
3868.76	0
3868.26	25.2342
3867.77	5.04612
3867.27	-5.0454
3866.77	0
3866.28	0
3865.78	15.1297
3865.29	50.425
3864.79	15.1253
3864.3	5.04105
3863.8	30.242
3863.3	20.1584
3862.81	5.03888
3862.31	5.03816
3861.81	-15.1123
3861.32	50.3671
3860.82	-5.03598
3860.33	45.3173
3859.83	15.1036
3859.33	10.0676
3858.84	5.03309
3858.34	30.1942
3857.84	5.03164
3857.35	10.0618
3856.85	45.2718
3856.35	5.02948
3855.85	35.2013
3855.36	10.0561
3854.86	10.0546
3854.36	5.02659
3853.86	20.1035
3853.37	30.1508
3852.87	15.0733
3852.37	35.1659
3851.87	10.0459
3851.38	15.0668
3850.88	15.0646
3850.38	-10.0416
3849.88	10.0402
3849.38	35.1356
3848.89	5.01864
3848.39	-20.0717
3847.89	35.1204
3847.39	20.0659
3846.89	25.0788
3846.39	20.0601
3845.9	35.1002
3845.4	40.1087
3844.9	40.103
3844.4	25.0608
3843.9	25.0572
3843.4	30.0643
3842.9	20.04
3842.4	10.0185
3841.91	25.0427
3841.41	5.00783
3840.91	20.0284
3840.41	0
3839.91	30.034
3839.41	30.0297
3838.91	10.0085
3838.41	15.0105
3837.91	0
3837.41	25.0103
3836.91	-5.00135
3836.41	35.0044
3835.91	29.9994
3835.41	34.9943
3834.91	29.9908
3834.41	39.982
3833.91	29.9822
3833.41	14.9889
3832.91	-14.9868
3832.41	-9.98974
3831.91	39.9532
3831.41	34.954
3830.91	24.9636
3830.4	9.98399
3829.9	24.9564
3829.4	39.9245
3828.9	9.97968
3828.4	29.9347
3827.9	29.9304
3827.4	4.98768
3826.9	29.9218
3826.4	-9.9725
3825.89	-14.9566
3825.39	4.98481
3824.89	29.9046
3824.39	-9.96675
3823.89	0
3823.39	29.8916
3822.88	24.9061
3822.38	4.98051
3821.88	4.97979
3821.38	9.95814
3820.88	4.97835
3820.37	14.9329
3819.87	-14.9308
3819.37	14.9286
3818.87	44.7794
3818.36	9.94954
3817.86	0
3817.36	0
3816.86	39.7809
3816.35	14.9157
3815.85	39.7695
3815.35	14.9114
3814.84	19.879
3814.34	4.96903
3813.84	19.8733
3813.33	34.7732
3812.83	9.93377
3812.33	29.797
3811.82	14.8964
3811.32	-14.8942
3810.82	4.96402
3810.31	4.96331
3809.81	19.8504
3809.31	-4.96188
3808.8	4.96116
3808.3	19.8418
3807.79	14.8792
3807.29	14.877
3806.79	0
3806.28	34.7031
3805.78	14.8706
3805.27	29.7369
3804.77	29.7326
3804.26	14.8642
3803.76	19.816
3803.25	-9.90659
3802.75	9.90516
3802.24	24.7593
3801.74	4.95115
3801.23	-4.95044
3800.73	-4.94972
3800.22	24.745
3799.72	14.8449
3799.21	4.94758
3798.71	34.6281
3798.2	4.94615
3797.7	24.7272
3797.19	29.6684
3796.69	-19.776
3796.18	24.7165
3795.67	4.94258
3795.17	-4.94187
3794.66	64.2351
3794.16	9.88089
3793.65	24.6987
3793.14	9.87804
3792.64	4.93831
3792.13	4.93759
3791.63	24.6844
3791.12	0
3790.61	-9.87091
3790.11	69.0864
3789.6	9.86806
3789.09	-19.7333
3788.59	19.7304
3788.08	29.5913
3787.57	24.6559
3787.06	4.93047
3786.56	0
3786.05	19.7162
3785.54	49.2833
3785.04	29.5657
3784.53	0
3784.02	19.7048
3783.51	14.7765
3783.01	19.6991
3782.5	19.6962
3781.99	9.8467
3781.48	-14.7679
3780.97	9.84385
3780.47	-4.92122
3779.96	-4.9205
3779.45	24.599
3778.94	39.3527
3778.43	34.4286
3777.93	34.4236
3777.42	0
3776.91	14.7487
3776.4	4.91553
3775.89	24.5741
3775.38	4.91411
3774.87	44.2206
3774.36	0
3773.86	-9.82395
3773.35	19.6451
3772.84	24.5528
3772.33	14.7295
3771.82	0
3771.31	19.6337
3770.8	9.81543
3770.29	9.81402
3769.78	-9.8126
3769.27	14.7168
3768.76	19.6195
3768.25	0
3767.74	44.1311
3767.23	34.3193
3766.72	-4.90204
3766.21	9.80267
3765.7	44.1056
3765.19	34.2994
3764.68	0
3764.17	9.797
3763.66	0
3763.15	9.79416
3762.64	24.4819
3762.13	34.2696
3761.62	24.4748
3761.11	24.4712
3760.6	34.2548
3760.09	0
3759.57	24.4606
3759.06	0
3758.55	29.3442
3758.04	29.34
3757.53	4.88929
3757.02	24.4429
3756.51	29.3273
3756	19.5487
3755.48	19.5458
3754.97	24.4288
3754.46	4.88505
3753.95	-4.88434
3753.44	9.76726
3752.92	19.5317
3752.41	4.88222
3751.9	34.1706
3751.39	9.76161
3750.88	-4.8801
3750.36	9.75878
3749.85	34.1508
3749.34	-9.75595
3748.83	19.5091
3748.31	29.2594
3747.8	39.0069
3747.29	19.5006
3746.78	34.1211
3746.26	29.2424
3745.75	14.6191
3745.24	-4.87233
3744.72	29.2297
3744.21	19.4837
3743.7	29.2213
3743.18	14.6085
3742.67	-4.8688
3742.16	19.4724
3741.64	9.73477
3741.13	-4.86668
3740.61	29.1959
3740.1	9.73054
3739.59	4.86457
3739.07	19.4554
3738.56	0
3738.04	0
3737.53	-4.86175
3737.02	-14.5831
3736.5	0
3735.99	14.5789
3735.47	-4.85893
3734.96	29.1493
3734.44	0
3733.93	9.71363
3733.41	14.5683
3732.9	-4.85541
3732.38	29.1282
3731.87	14.562
3731.35	43.6797
3730.84	38.8207
3730.32	9.70377
3729.81	-4.85118
3729.29	-4.85048
3728.78	29.0987
3728.26	-14.5472
3727.75	29.0902
3727.23	24.2383
3726.71	4.84696
3726.2	0
3725.68	-14.5367
3725.17	0
3724.65	24.2208
3724.13	-19.3738
3723.62	24.2137
3723.1	-14.5261
3722.59	33.8894
3722.07	-4.84064
3721.55	33.8795
3721.04	9.67846
3720.52	48.3853
3720	0
3719.49	19.3485
3718.97	43.5278
3718.45	0
3717.93	4.83502
3717.42	4.83432
3716.9	19.3345
3716.38	33.8304
3715.87	14.4966
3715.35	14.4945
3714.83	38.6465
3714.31	14.4903
3713.8	14.4882
3713.28	4.8287
3712.76	-4.828
3712.24	4.8273
3711.72	24.133
3711.21	28.9554
3710.69	57.9024
3710.17	4.8245
3709.65	19.2952
3709.13	-14.4693
3708.61	-4.8224
3708.1	38.5736
3707.58	38.568
3707.06	0
3706.54	24.098
3706.02	28.9134
3705.5	28.9092
3704.98	28.905
3704.46	24.084
3703.95	14.4483
3703.43	24.077
3702.91	14.4441
3702.39	14.442
3701.87	24.0665
3701.35	9.62519
3700.83	14.4357
3700.31	24.056
3699.79	9.62099
3699.27	4.8098
3698.75	9.6182
3698.23	28.8504
3697.71	14.4231
3697.19	28.842
3696.67	43.2567
3696.15	24.028
3695.63	-4.80491
3695.11	-4.80421
3694.59	0
3694.07	28.8169
3693.55	33.6148
3693.03	0
3692.51	9.60143
3691.99	43.2001
3691.46	28.7959
3690.94	-9.59724
3690.42	4.79792
3689.9	28.7833
3689.38	4.79653
3688.86	28.775
3688.34	23.9757
3687.82	33.561
3687.29	23.9687
3686.77	-9.58608
3686.25	38.3387
3685.73	23.9582
3685.21	14.3728
3684.69	23.9512
3684.16	4.78955
3683.64	-14.3666
3683.12	19.1526
3682.6	4.78746
3682.08	4.78676
3681.55	19.1443
3681.03	9.57074
3680.51	4.78467
3679.99	4.78398
3679.46	-4.78328
3678.94	19.1303
3678.42	4.78189
3677.89	43.0307
3677.37	28.683
3676.85	0
3676.33	-23.8955
3675.8	0
3675.28	19.1108
3674.76	19.1081
3674.23	38.2106
3673.71	33.4294
3673.19	47.7493
3672.66	14.3227
3672.14	62.056
3671.61	14.3185
3671.09	19.0886
3670.57	9.54291
3670.04	23.8538
3669.52	33.3904
3668.99	28.6162
3668.47	28.612
3667.95	4.76798
3667.42	38.1383
3666.9	14.2998
3666.37	28.5954
3665.85	14.2956
3665.32	38.116
3664.8	-4.76381
3664.27	61.9205
3663.75	19.0497
3663.22	4.76173
3662.7	28.5662
3662.17	9.52068
3661.65	47.5965
3661.12	57.1074
3660.6	23.7913
3660.07	14.2727
3659.55	19.0275
3659.02	33.2932
3658.49	28.5329
3657.97	38.0383
3657.44	9.50819
3656.92	9.50681
3656.39	52.2798
3655.86	23.7601
3655.34	19.0053
3654.81	28.5038
3654.29	18.9998
3653.76	9.49849
3653.23	37.9884
3652.71	47.4786
3652.18	9.49434
3651.65	28.4789
3651.13	18.9831
3650.6	28.4705
3650.07	28.4664
3649.55	-14.2311
3649.02	23.7151
3648.49	14.227
3647.96	23.7081
3647.44	14.2228
3646.91	0
3646.38	42.656
3645.85	-9.47772
3645.33	18.9527
3644.8	18.9499
3644.27	4.73679
3643.74	23.6805
3643.22	9.47081
3642.69	14.2041
3642.16	23.6701
3641.63	14.2
3641.1	18.9306
3640.57	18.9278
3640.05	23.6563
3639.52	18.9223
3638.99	4.72988
3638.46	14.1876
3637.93	23.6425
3637.4	28.3668
3636.87	4.72711
3636.35	28.3585
3635.82	28.3544
3635.29	23.6252
3634.76	4.72435
3634.23	18.8947
3633.7	28.3378
3633.17	0
3632.64	51.9375
3632.11	23.6045
3631.58	28.3213
3631.05	23.5976
3630.52	42.4695
3629.99	9.43629
3629.46	14.1524
3628.93	4.71677
3628.4	18.8643
3627.87	9.43078
3627.34	28.2882
3626.81	18.856
3626.28	18.8533
3625.75	0
3625.22	42.4075
3624.69	18.845
3624.16	14.1317
3623.63	28.2593
3623.1	9.41838
3622.57	4.7085
3622.03	32.9547
3621.5	4.70712
3620.97	42.3579
3620.44	14.1172
3619.91	28.2303
3619.38	23.5219
3618.85	28.2221
3618.32	37.624
3617.78	4.70231
3617.25	0
3616.72	9.40186
3616.19	18.801
3615.66	14.0987
3615.12	23.4943
3614.59	14.0945
3614.06	-4.69749
3613.53	14.0904
3613	9.39224
3612.46	42.2589
3611.93	14.0842
3611.4	42.2465
3610.86	0
3610.33	28.1561
3609.8	32.844
3609.27	23.4566
3608.73	42.2156
3608.2	56.2793
3607.67	-4.68925
3607.13	37.5085
3606.6	14.0636
3606.07	4.68719
3605.53	42.1786
3605	32.8007
3604.47	23.4257
3603.93	23.4222
3603.4	42.1539
3602.87	28.0985
3602.33	37.4591
3601.8	4.68171
3601.26	42.1292
3600.73	9.36067
3600.2	18.7186
3599.66	14.0369
3599.13	28.0697
3598.59	23.388
3598.06	23.3845
3597.52	18.7049
3596.99	18.7022
3596.45	-4.67485
3595.92	18.6967
3595.38	28.0409
3594.85	9.3456
3594.31	4.67211
3593.78	46.7143
3593.24	14.0122
3592.71	23.3503
3592.17	18.6775
3591.64	28.0122
3591.1	23.34
3590.57	28.0039
3590.03	9.33328
3589.49	18.6638
3588.96	27.9916
3588.42	27.9875
3587.89	46.639
3587.35	37.3058
3586.81	41.9628
3586.28	13.9856
3585.74	32.6282
3585.2	23.3024
3584.67	32.6186
3584.13	55.9094
3583.6	27.9506
3583.06	13.9733
3582.52	23.2854
3581.98	23.2819
3581.45	9.31141
3580.91	41.8952
3580.37	18.6174
3579.84	18.6146
3579.3	0
3578.76	9.30458
3578.22	41.8645
3577.69	27.9056
3577.15	23.2512
3576.61	18.5982
3576.07	46.4888
3575.54	23.241
3575	13.9425
3574.46	46.4683
3573.92	18.5846
3573.38	51.1002
3572.85	41.8031
3572.31	46.4411
3571.77	9.28685
3571.23	51.0702
3570.69	23.2103
3570.15	46.4138
3569.61	13.9221
3569.08	37.1201
3568.54	60.3114
3568	46.3866
3567.46	41.7418
3566.92	32.4611
3566.38	27.8197
3565.84	32.4515
3565.3	9.2705
3564.76	41.7111
3564.22	18.5356
3563.68	41.6989
3563.14	13.8976
3562.6	37.0548
3562.06	18.5247
3561.52	41.6744
3560.98	23.149
3560.44	32.4039
3559.9	27.7707
3559.36	18.5111
3558.82	18.5084
3558.28	18.5056
3557.74	50.883
3557.2	27.7503
3556.66	13.8731
3556.12	27.7421
3555.58	41.6071
3555.04	23.1117
3554.5	27.7299
3553.96	4.62097
3553.42	36.9624
3552.87	18.4785
3552.33	9.23787
3551.79	0
3551.25	50.7934
3550.71	32.3183
3550.17	36.9298
3549.63	41.5399
3549.08	23.0743
3548.54	4.61419
3548	27.681
3547.46	18.4513
3546.92	27.6729
3546.37	46.1147
3545.83	-13.8324
3545.29	41.491
3544.75	13.8283
3544.21	32.2613
3543.66	32.2566
3543.12	27.6444
3542.58	41.4605
3542.03	73.6968
3541.49	41.4483
3540.95	27.6282
3540.41	32.2281
3539.86	32.2234
3539.32	27.616
3538.78	32.2139
3538.23	41.4118
3537.69	55.2076
3537.15	32.1997
3536.6	32.1949
3536.06	36.7888
3535.52	45.9792
3534.97	18.389
3534.43	41.3691
3533.88	27.5754
3533.34	36.7617
3532.8	32.1618
3532.25	27.5632
3531.71	41.3387
3531.16	68.8877
3530.62	59.6939
3530.07	9.18232
3529.53	27.5429
3528.98	27.5388
3528.44	27.5348
3527.89	36.7077
3527.35	18.3511
3526.8	27.5226
3526.26	27.5186
3525.71	45.8575
3525.17	18.3403
3524.62	22.922
3524.08	27.5024
3523.53	-13.7492
3522.99	27.4943
3522.44	22.9085
3521.9	18.3241
3521.35	59.5446
3520.8	27.4781
3520.26	36.632
3519.71	36.6266
3519.17	36.6212
3518.62	41.1928
3518.07	41.1867
3517.53	27.4538
3516.98	41.1746
3516.43	13.7228
3515.89	64.0305
3515.34	0
3514.79	22.8613
3514.25	27.4295
3513.7	50.28
3513.15	9.14048
3512.61	41.1261
3512.06	36.5511
3511.51	22.8411
3510.96	41.1079
3510.42	27.4012
3509.87	18.2648
3509.32	41.0897
3508.77	18.2594
3508.23	27.3851
3507.68	41.0715
3507.13	22.8142
3506.58	4.56216
3506.04	36.4919
3505.49	27.3649
3504.94	41.0412
3504.39	36.4757
3503.84	22.794
3503.29	36.465
3502.75	36.4596
3502.2	59.2381
3501.65	22.7805
3501.1	54.6652
3500.55	4.55476
3500	36.4327
3499.45	31.8739
3498.9	4.55274
3498.35	22.7604
3497.8	18.2056
3497.26	13.6522
3496.71	36.4004
3496.16	40.9445
3495.61	36.3897
3495.06	18.1922
3494.51	36.379
3493.96	40.9203
3493.41	13.6381
3492.86	40.9082
3492.31	31.8128
3491.76	36.3521
3491.21	9.08669
3490.66	27.256
3490.11	40.878
3489.56	40.872
3489	27.244
3488.45	27.2399
3487.9	27.2359
3487.35	18.1546
3486.8	18.1519
3486.25	40.8358
3485.7	40.8297
3485.15	40.8237
3484.6	40.8177
3484.05	9.06925
3483.49	27.2037
3482.94	54.3994
3482.39	4.53262
3481.84	27.1917
3481.29	40.7815
3480.74	58.8979
3480.18	45.2994
3479.63	49.822
3479.08	18.1144
3478.53	31.6955
3477.98	27.1636
3477.42	27.1595
3476.87	27.1555
3476.32	45.2525
3475.77	49.7704
3475.21	27.1435
3474.66	49.7557
3474.11	45.2258
3473.56	76.8724
3473	36.1699
3472.45	36.1646
3471.9	40.6791
3471.34	40.6731
3470.79	27.1114
3470.24	58.7327
3469.68	22.5861
3469.13	22.5828
3468.58	40.643
3468.02	31.6066
3467.47	27.0873
3466.91	31.5972
3466.36	31.5925
3465.81	40.613
3465.25	4.51189
3464.7	36.0897
3464.14	40.595
3463.59	40.589
3463.04	58.6198
3462.48	45.0855
3461.93	13.5236
3461.37	27.0433
3460.82	31.5458
3460.26	54.0706
3459.71	49.5573
3459.15	22.5227
3458.6	13.5116
3458.04	54.0386
3457.49	49.528
3456.93	31.5132
3456.38	40.5109
3455.82	31.5038
3455.27	58.4984
3454.71	35.9937
3454.15	49.484
3453.6	44.9788
3453.04	40.4749
3452.49	8.9931
3451.93	67.4382
3451.37	31.4665
3450.82	31.4619
3450.26	44.9389
3449.7	26.9593
3449.15	26.9553
3448.59	31.4432
3448.04	49.4035
3447.48	40.415
3446.92	22.4495
3446.36	53.8707
3445.81	44.8856
3445.25	40.3911
3444.69	40.3851
3444.14	67.2985
3443.58	22.4295
3443.02	26.9114
3442.46	40.3611
3441.91	0
3441.35	44.8324
3440.79	17.9303
3440.23	31.3734
3439.68	13.4437
3439.12	40.3253
3438.56	35.8394
3438	49.2718
3437.44	44.7859
3436.88	44.7793
3436.33	49.2499
3435.77	31.3362
3435.21	67.139
3434.65	44.7527
3434.09	31.3223
3433.53	53.6873
3432.97	13.4198
3432.42	22.3631
3431.86	62.6074
3431.3	-4.47129
3430.74	53.6475
3430.18	53.6396
3429.62	31.2851
3429.06	17.8746
3428.5	44.6797
3427.94	35.7385
3427.38	58.0664
3426.82	40.1939
3426.26	40.1879
3425.7	31.2526
3425.14	26.784
3424.58	53.56
3424.02	53.5521
3423.46	53.5441
3422.9	53.5362
3422.34	62.4496
3421.78	44.6002
3421.22	35.6749
3420.66	8.9174
3420.1	22.2902
3419.54	40.1164
3418.98	22.2836
3418.41	17.8242
3417.85	31.1877
3417.29	49.002
3416.73	80.1732
3416.17	35.6272
3415.61	31.1692
3415.05	53.425
3414.49	57.8685
3413.92	57.8599
3413.36	40.0509
3412.8	17.7978
3412.24	44.4878
3411.68	13.3443
3411.11	13.3424
3410.55	48.9147
3409.99	35.5691
3409.43	26.6728
3408.86	44.4481
3408.3	17.7766
3407.74	31.1044
3407.18	53.314
3406.61	48.8639
3406.05	26.6491
3405.49	31.086
3404.92	22.201
3404.36	26.6372
3403.8	53.2664
3403.24	39.9439
3402.67	44.3755
3402.11	53.2427
3401.54	35.4898
3400.98	48.7913
3400.42	35.4793
3399.85	31.0398
3399.29	44.3359
3398.73	26.5976
3398.16	26.5936
3397.6	48.7478
3397.03	57.6024
3396.47	53.1636
3395.9	53.1557
3395.34	17.7159
3394.78	79.7098
3394.21	61.9873
3393.65	66.405
3393.08	39.8371
3392.52	61.9596
3391.95	30.9752
3391.39	61.9412
3390.82	44.2371
3390.26	53.0766
3389.69	48.6463
3389.13	48.6391
3388.56	44.2108
3387.99	30.9429
3387.43	61.8767
3386.86	57.4483
3386.3	44.1845
3385.73	26.5067
3385.17	48.5884
3384.6	39.7482
3384.03	48.574
3383.47	83.888
3382.9	48.5595
3382.33	35.3107
3381.77	35.3055
3381.2	75.013
3380.63	35.295
3380.07	39.7009
3379.5	57.3372
3378.93	48.5089
3378.37	52.9109
3377.8	35.2687
3377.23	39.6714
3376.67	44.0727
3376.1	48.4728
3375.53	48.4656
3374.96	83.7008
3374.4	61.6651
3373.83	39.6359
3373.26	66.05
3372.69	35.2214
3372.12	44.0202
3371.56	26.4082
3370.99	48.4078
3370.42	48.4006
3369.85	39.5946
3369.28	35.1899
3368.72	39.5828
3368.15	48.3717
3367.58	52.7613
3367.01	70.3379
3366.44	43.9546
3365.87	43.9481
3365.3	92.2772
3364.73	48.3285
3364.17	61.4998
3363.6	52.7063
3363.03	30.7407
3362.46	39.5179
3361.89	48.2925
3361.32	35.1166
3360.75	61.4448
3360.18	43.8826
3359.61	39.4884
3359.04	61.4173
3358.47	48.2493
3357.9	87.7128
3357.33	61.3898
3356.76	52.612
3356.19	43.8368
3355.62	78.8944
3355.05	65.7356
3354.48	56.9623
3353.91	35.0485
3353.34	91.9886
3352.77	43.7976
3352.19	74.4447
3351.62	61.2983
3351.05	39.4002
3350.48	43.7714
3349.91	48.1414
3349.34	39.3825
3348.77	52.5022
3348.2	56.8689
3347.62	74.3559
3347.05	56.8519
3346.48	83.0788
3345.91	74.3226
3345.34	83.054
3344.76	43.7061
3344.19	61.1794
3343.62	61.1703
3343.05	74.2671
3342.48	82.992
3341.9	43.6735
3341.33	61.1337
3340.76	74.2227
3340.19	52.3847
3339.61	26.1884
3339.04	56.7331
3338.47	39.2709
3337.89	91.6184
3337.32	74.1562
3336.75	56.6992
3336.17	52.3299
3335.6	61.0424
3335.03	52.3143
3334.45	30.5121
3333.88	74.0897
3333.31	26.1454
3332.73	26.1415
3332.16	56.6315
3331.59	39.2005
3331.01	69.6794
3330.44	39.1888
3329.86	52.2439
3329.29	21.7651
3328.71	56.5807
3328.14	47.8688
3327.56	56.5638
3326.99	104.41
3326.42	43.4976
3325.84	30.4437
3325.27	56.5299
3324.69	69.5649
3324.12	21.7358
3323.54	43.465
3322.97	69.5337
3322.39	52.1424
3321.81	39.101
3321.24	60.8147
3320.66	47.7758
3320.09	65.1391
3319.51	69.4713
3318.94	39.0717
3318.36	65.1098
3317.78	65.1001
3317.21	47.7329
3316.63	73.758
3316.06	47.7186
3315.48	69.3985
3314.9	47.7043
3314.33	91.0583
3313.75	60.6964
3313.17	47.6829
3312.6	60.6783
3312.02	47.6686
3311.44	73.6587
3310.86	56.3188
3310.29	51.9788
3309.71	60.6329
3309.13	60.6238
3308.56	17.3185
3307.98	60.6056
3307.4	73.5815
3306.82	51.9321
3306.25	51.9243
3305.67	73.5485
3305.09	51.9088
3304.51	73.5264
3303.93	64.8665
3303.36	60.533
3302.78	69.1702
3302.2	64.8374
3301.62	60.5058
3301.04	77.7815
3300.46	51.8466
3299.88	82.0781
3299.31	64.7888
3298.73	38.8675
3298.15	82.0412
3297.57	82.0289
3296.99	69.0666
3296.41	56.1082
3295.83	77.6767
3295.25	77.665
3294.67	81.9675
3294.09	47.4477
3293.51	38.8151
3292.93	60.3699
3292.35	51.7379
3291.77	34.4868
3291.19	86.204
3290.61	94.8101
3290.03	68.9425
3289.45	60.3156
3288.87	73.2294
3288.29	47.3766
3287.71	47.3695
3287.13	64.5851
3286.55	51.6603
3285.97	81.7833
3285.39	73.1635
3284.81	64.5464
3284.23	98.9563
3283.64	51.6216
3283.06	73.1196
3282.48	64.5076
3281.9	38.6988
3281.32	90.2836
3280.74	90.27
3280.16	51.5751
3279.57	90.2429
3278.99	77.3395
3278.41	85.9199
3277.83	68.7256
3277.25	60.1258
3276.66	64.4109
3276.08	68.6946
3275.5	55.806
3274.92	68.674
3274.33	111.578
3273.75	111.562
3273.17	64.3529
3272.59	77.2118
3272	98.6448
3271.42	60.0356
3270.84	64.3142
3270.25	81.4524
3269.67	38.5769
3269.09	55.7139
3268.5	68.5606
3267.92	59.9815
3267.34	72.8238
3266.75	81.379
3266.17	81.3668
3265.59	94.2001
3265	81.3424
3264.42	68.4885
3263.83	64.1984
3263.25	68.468
3262.67	68.4577
3262.08	68.4474
3261.5	76.9917
3260.91	89.8102
3260.33	59.8645
3259.74	81.2324
3259.16	64.1212
3258.57	94.0303
3257.99	85.4692
3257.4	85.4564
3256.82	85.4435
3256.23	59.8015
3255.65	68.3343
3255.06	68.324
3254.48	59.7745
3253.89	72.5724
3253.3	55.4882
3252.72	85.3536
3252.13	76.8067
3251.55	55.4632
3250.96	68.2521
3250.37	68.2418
3249.79	106.612
3249.2	76.7489
3248.62	63.9478
3248.03	102.301
3247.44	63.9286
3246.86	55.3964
3246.27	85.2125
3245.68	89.4596
3245.09	85.1868
3244.51	59.6218
3243.92	76.6451
3243.33	63.8613
3242.75	72.3652
3242.16	72.3543
3241.57	63.8324
3240.98	51.0583
3240.4	38.2879
3239.81	89.3251
3239.22	76.5528
3238.63	59.5321
3238.04	80.7814
3237.46	89.2713
3236.87	55.2548
3236.28	67.9957
3235.69	97.7291
3235.1	106.211
3234.51	101.947
3233.93	72.2019
3233.34	72.1911
3232.75	80.672
3232.16	101.886
3231.57	63.6692
3230.98	93.3674
3230.39	84.8667
3229.8	118.795
3229.21	93.3252
3228.62	63.6212
3228.04	59.3709
3227.45	67.8422
3226.86	63.5925
3226.27	59.344
3225.68	105.956
3225.09	101.702
3224.5	59.3172
3223.91	93.1987
3223.32	84.7133
3222.73	67.7604
3222.14	55.0471
3221.54	88.9088
3220.95	101.595
3220.36	88.882
3219.77	110.028
3219.18	67.6992
3218.59	76.1501
3218	88.8283
3217.41	93.0442
3216.82	63.4297
3216.23	80.3321
3215.63	46.5011
3215.04	105.668
3214.45	80.2958
3213.86	63.3819
3213.27	59.1475
3212.68	88.7078
3212.08	71.8003
3211.49	71.7894
3210.9	88.6677
3210.31	71.7678
3209.72	97.0829
3209.12	92.8479
3208.53	75.955
3207.94	92.8199
3207.35	71.7136
3206.75	109.663
3206.16	75.9091
3205.57	75.8977
3204.97	84.318
3204.38	84.3053
3203.79	75.8633
3203.2	101.136
3202.6	113.761
3202.01	105.318
3201.41	88.4537
3200.82	101.075
3200.23	80.0054
3199.63	84.2035
3199.04	96.8194
3198.45	58.9246
3197.85	84.1653
3197.26	88.3603
3196.66	113.589
3196.07	54.6827
3195.47	88.3202
3194.88	67.2814
3194.29	67.2713
3193.69	105.095
3193.1	105.08
3192.5	84.051
3191.91	88.2402
3191.31	117.636
3190.72	96.6148
3190.12	79.8002
3189.53	67.19
3188.93	71.3786
3188.33	117.547
3187.74	88.1468
3187.14	104.921
3186.55	88.1202
3185.95	92.3024
3185.36	134.238
3184.76	79.6916
3184.16	71.2923
3183.57	79.6675
3182.97	88.0403
3182.37	92.2187
3181.78	83.8225
3181.18	100.572
3180.58	108.936
3179.99	83.7845
3179.39	113.092
3178.79	79.5712
3178.2	87.9338
3177.6	33.4935
3177	46.0466
3176.41	113.006
3175.81	87.8806
3175.21	83.6831
3174.61	79.4869
3174.02	104.572
3173.42	100.374
3172.82	108.722
3172.22	117.068
3171.62	79.4268
3171.03	91.954
3170.43	83.5819
3169.83	125.354
3169.23	133.69
3168.63	108.607
3168.03	121.12
3167.43	96.0464
3166.84	91.8566
3166.24	96.0173
3165.64	125.221
3165.04	104.335
3164.44	125.183
3163.84	83.4427
3163.24	87.6016
3162.64	125.126
3162.04	104.256
3161.44	104.24
3160.84	108.393
3160.24	125.05
3159.64	108.361
3159.04	87.5088
3158.44	116.661
3157.84	137.472
3157.24	149.947
3156.64	137.43
3156.04	129.082
3155.44	154.042
3154.84	129.043
3154.24	141.509
3153.64	141.488
3153.04	153.949
3152.44	149.765
3151.84	120.626
3151.24	103.972
3150.64	149.697
3150.03	137.201
3149.43	141.338
3148.83	137.16
3148.23	112.205
3147.63	137.118
3147.03	128.788
3146.42	149.538
3145.82	182.741
3145.22	195.171
3144.62	174.382
3144.02	141.145
3143.41	112.069
3142.81	136.952
3142.21	132.782
3141.61	95.4224
3141	165.927
3140.4	157.607
3139.8	153.436
3139.19	91.2182
3138.59	136.807
3137.99	140.931
3137.39	145.054
3136.78	99.4504
3136.18	103.578
3135.58	149.13
3134.97	120.114
3134.37	111.814
3133.76	144.922
3133.16	111.78
3132.56	124.181
3131.95	132.44
3131.35	111.729
3130.74	91.0245
3130.14	124.105
3129.54	124.087
3128.93	140.61
3128.33	132.319
3127.72	128.164
3127.12	111.61
3126.51	115.726
3125.91	132.239
3125.3	169.405
3124.7	123.936
3124.09	115.656
3123.49	123.898
3122.88	136.267
3122.27	156.89
3121.67	185.763
3121.06	123.823
3120.46	127.931
3119.85	144.416
3119.25	136.143
3118.64	152.622
3118.03	140.226
3117.43	127.834
3116.82	131.937
3116.21	107.183
3115.61	144.263
3115	135.998
3114.39	148.339
3113.79	119.477
3113.18	173.01
3112.57	140.034
3111.97	127.659
3111.36	135.874
3110.75	119.387
3110.15	160.53
3109.54	123.466
3108.93	156.366
3108.32	193.371
3107.71	119.296
3107.11	131.617
3106.5	123.372
3105.89	135.688
3105.28	156.224
3104.67	139.758
3104.07	164.396
3103.46	168.48
3102.85	188.998
3102.24	151.997
3101.63	176.618
3101.02	193.018
3100.41	164.246
3099.81	201.17
3099.2	176.51
3098.59	139.545
3097.98	168.249
3097.37	188.739
3096.76	176.403
3096.15	135.358
3095.54	159.945
3094.93	143.518
3094.32	143.496
3093.71	172.169
3093.1	225.426
3092.49	159.823
3091.88	192.578
3091.27	229.419
3090.66	176.134
3090.05	159.725
3089.44	151.511
3088.83	184.242
3088.22	188.308
3087.61	184.186
3087	180.066
3086.39	163.671
3085.77	184.102
3085.16	171.802
3084.55	130.877
3083.94	204.464
3083.33	212.611
3082.72	188.05
3082.11	208.458
3081.49	187.993
3080.88	224.74
3080.27	200.192
3079.66	216.501
3079.05	228.721
3078.43	224.602
3077.82	200.07
3077.21	216.369
3076.6	253.072
3075.98	269.359
3075.37	248.915
3074.76	183.598
3074.15	252.918
3073.53	228.407
3072.92	240.607
3072.31	232.415
3071.69	252.764
3071.08	289.411
3070.47	285.291
3069.85	289.323
3069.24	289.279
3068.63	297.382
3068.01	285.117
3067.4	285.074
3066.79	317.605
3066.17	354.198
3065.56	378.567
3064.94	374.44
3064.33	402.868
3063.71	374.325
3063.1	410.881
3062.48	435.224
3061.87	508.361
3061.26	487.952
3060.64	646.438
3060.03	569.104
3059.41	573.081
3058.79	609.568
3058.18	702.928
3057.56	654.07
3056.95	751.456
3056.33	735.096
3055.72	791.833
3055.1	763.292
3054.49	779.413
3053.87	791.471
3053.25	791.35
3052.64	779.056
3052.02	803.279
3051.41	701.747
3050.79	730.03
3050.17	729.919
3049.56	685.208
3048.94	599.972
3048.32	603.933
3047.71	607.894
3047.09	619.957
3046.47	571.245
3045.85	559.006
3045.24	486.018
3044.62	538.587
3044	522.309
3043.38	506.036
3042.77	493.816
3042.15	449.223
3041.53	501.758
3040.91	449.085
3040.3	428.791
3039.68	489.394
3039.06	440.791
3038.44	404.334
3037.82	384.059
3037.2	392.084
3036.59	387.983
3035.97	396.005
3035.35	359.582
3034.73	343.369
3034.11	327.16
3033.49	371.532
3032.87	290.72
3032.25	294.713
3031.63	209.9
3031.01	242.155
3030.39	274.401
3029.77	258.22
3029.15	262.215
3028.54	258.141
3027.92	221.806
3027.3	278.223
3026.68	253.991
3026.05	266.045
3025.43	233.761
3024.81	245.815
3024.19	213.544
3023.57	213.511
3022.95	225.562
3022.33	233.582
3021.71	209.386
3021.09	229.485
3020.47	245.551
3019.85	289.787
3019.23	249.5
3018.61	229.344
3017.98	249.424
3017.36	189.05
3016.74	225.217
3016.12	229.204
3015.5	229.168
3014.88	205.014
3014.25	221.06
3013.63	233.082
3013.01	257.154
3012.39	245.063
3011.76	208.874
3011.14	244.987
3010.52	232.903
3009.9	204.763
3009.27	240.86
3008.65	260.892
3008.03	200.655
3007.4	228.712
3006.78	264.784
3006.16	224.631
3005.54	208.554
3004.91	212.532
3004.29	220.518
3003.66	276.607
3003.04	212.434
3002.42	240.454
3001.79	224.39
3001.17	208.33
3000.54	236.338
2999.92	240.307
2999.3	212.239
2998.67	208.202
2998.05	216.177
2997.42	232.154
2996.8	224.114
2996.17	212.076
2995.55	216.044
2994.92	272.014
2994.3	239.975
2993.67	259.933
2993.05	243.9
2992.42	219.876
2991.8	259.814
2991.17	283.753
2990.55	251.742
2989.92	255.699
2989.29	215.713
2988.67	215.679
2988.04	275.548
2987.42	251.549
2986.79	235.541
2986.16	247.48
2985.54	231.478
2984.91	187.548
2984.28	219.437
2983.66	247.328
2983.03	279.198
2982.4	231.3
2981.78	243.227
2981.15	243.189
2980.52	215.249
2979.9	231.158
2979.27	251.047
2978.64	251.008
2978.01	250.97
2977.39	246.948
2976.76	266.822
2976.13	266.781
2975.5	250.815
2974.87	258.738
2974.25	306.458
2973.62	234.782
2972.99	270.555
2972.36	258.579
2971.73	246.607
2971.1	258.499
2970.47	270.389
2969.85	218.663
2969.22	242.48
2968.59	234.494
2967.96	230.484
2967.33	258.261
2966.7	262.194
2966.07	246.265
2965.44	242.256
2964.81	238.248
2964.18	242.182
2963.55	277.87
2962.92	242.107
2962.29	265.88
2961.66	277.742
2961.03	241.995
2960.4	210.226
2959.77	317.273
2959.14	265.675
2958.51	333.034
2957.88	225.953
2957.25	297.26
2956.62	317.029
2955.99	245.66
2955.36	285.238
2954.73	273.311
2954.09	289.111
2953.46	300.946
2952.83	292.981
2952.2	257.309
2951.57	308.723
2950.94	300.76
2950.3	316.541
2949.67	308.58
2949.04	300.621
2948.41	264.981
2947.78	288.666
2947.14	292.575
2946.51	312.296
2945.88	332.01
2945.25	304.296
2944.61	320.054
2943.98	320.004
2943.35	319.955
2942.71	351.501
2942.08	355.396
2941.45	335.6
2940.82	280.282
2940.18	327.603
2939.55	323.606
2938.91	366.96
2938.28	280.109
2937.65	315.567
2937.01	303.686
2936.38	343.073
2935.75	315.421
2935.11	303.546
2934.48	256.201
2933.84	303.452
2933.21	267.942
2932.57	307.298
2931.94	303.312
2931.3	338.712
2930.67	299.28
2930.03	275.61
2929.4	299.188
2928.76	307.014
2928.13	299.096
2927.49	310.854
2926.86	330.478
2926.22	263.554
2925.59	322.509
2924.95	318.527
2924.32	283.092
2923.68	322.36
2923.04	310.519
2922.41	326.191
2921.77	290.776
2921.13	275.016
2920.5	294.614
2919.86	310.279
2919.23	310.231
2918.59	306.257
2917.95	345.467
2917.31	329.713
2916.68	333.587
2916.04	313.915
2915.4	290.327
2914.77	360.891
2914.13	317.692
2913.49	298.035
2912.85	372.487
2912.22	344.987
2911.58	317.496
2910.94	344.88
2910.3	348.746
2909.66	325.184
2909.03	297.713
2908.39	352.501
2907.75	317.202
2907.11	328.899
2906.47	364.082
2905.83	348.369
2905.19	328.746
2904.56	348.261
2903.92	320.82
2903.28	332.506
2902.64	293.342
2902	328.492
2901.36	297.162
2900.72	324.481
2900.08	347.884
2899.44	383.004
2898.8	363.407
2898.16	363.351
2897.52	375.014
2896.88	386.673
2896.24	355.372
2895.6	374.84
2894.96	351.358
2894.32	378.627
2893.68	323.93
2893.04	300.467
2892.4	362.845
2891.76	347.185
2891.12	343.231
2890.48	350.977
2889.83	362.621
2889.19	366.463
2888.55	315.733
2887.91	378.042
2887.27	335.119
2886.63	342.859
2885.98	377.866
2885.34	358.333
2884.7	299.863
2884.06	334.86
2883.42	358.167
2882.77	447.639
2882.13	334.704
2881.49	365.783
2880.85	377.398
2880.2	322.878
2879.56	334.497
2878.92	396.667
2878.28	396.606
2877.63	388.769
2876.99	334.29
2876.35	380.876
2875.7	334.186
2875.06	431.266
2874.42	404.007
2873.77	411.712
2873.13	380.581
2872.48	411.585
2871.84	399.874
2871.2	388.167
2870.55	407.512
2869.91	353.123
2869.26	384.107
2868.62	380.168
2867.98	430.532
2867.33	418.831
2866.69	407.133
2866.04	368.302
2865.4	383.75
2864.75	399.193
2864.11	410.756
2863.46	418.441
2862.82	468.736
2862.17	453.171
2861.52	433.737
2860.88	445.286
2860.23	379.402
2859.59	352.247
2858.94	433.468
2858.29	414.052
2857.65	375.298
2857	390.713
2856.36	379.049
2855.71	444.734
2855.06	386.665
2854.42	421.399
2853.77	417.468
2853.12	425.133
2852.48	363.239
2851.83	421.138
2851.18	401.757
2850.53	490.531
2849.89	432.527
2849.24	498.101
2848.59	374.483
2847.94	432.326
2847.3	424.54
2846.65	428.333
2846	455.274
2845.35	420.484
2844.7	458.989
2844.06	420.354
2843.41	454.991
2842.76	443.355
2842.11	393.175
2841.46	493.32
2840.81	431.588
2840.16	466.196
2839.52	466.124
2838.87	419.831
2838.22	446.724
2837.57	419.701
2836.92	400.386
2836.27	454.214
2835.62	469.538
2834.97	411.744
2834.32	427.07
2833.67	469.319
2833.02	453.861
2832.37	396.105
2831.72	488.326
2831.07	449.805
2830.42	461.267
2829.77	461.195
2829.12	476.494
2828.47	426.473
2827.82	445.614
2827.17	449.385
2826.51	468.517
2825.86	479.963
2825.21	460.693
2824.56	525.876
2823.91	487.415
2823.26	460.478
2822.61	468.08
2821.96	448.826
2821.3	490.947
2820.65	452.522
2820	452.451
2819.35	444.713
2818.7	513.641
2818.04	498.23
2817.39	456.001
2816.74	475.087
2816.09	547.798
2815.43	501.75
2814.78	486.354
2814.13	474.791
2813.47	470.889
2812.82	516.749
2812.17	459.261
2811.51	447.71
2810.86	516.508
2810.21	508.776
2809.55	497.223
2808.9	451.255
2808.25	447.361
2807.59	485.522
2806.94	542.782
2806.28	470.083
2805.63	531.149
2804.98	439.372
2804.32	488.963
2803.67	507.984
2803.01	473.536
2802.36	439.098
2801.7	511.565
2801.05	534.387
2800.39	511.405
2799.74	541.852
2799.08	522.692
2798.43	503.537
2797.77	507.272
2797.12	480.499
2796.46	529.991
2795.8	533.721
2795.15	510.768
2794.49	522.121
2793.84	525.85
2793.18	510.529
2792.52	529.496
2791.87	563.692
2791.21	578.836
2790.55	494.98
2789.9	513.938
2789.24	548.115
2788.58	532.806
2787.93	509.892
2787.27	555.467
2786.61	555.381
2785.95	479.226
2785.3	486.757
2784.64	513.296
2783.98	566.439
2783.32	516.937
2782.67	524.457
2782.01	547.175
2781.35	562.286
2780.69	565.997
2780.03	588.697
2779.38	550.63
2778.72	493.592
2778.06	592.217
2777.4	538.985
2776.74	531.311
2776.08	565.379
2775.42	542.527
2774.76	580.375
2774.11	557.528
2773.45	625.699
2772.79	610.435
2772.13	564.849
2771.47	583.712
2770.81	606.36
2770.15	557.006
2769.49	587.227
2768.83	575.772
2768.17	552.957
2767.51	526.364
2766.85	590.647
2766.19	552.698
2765.53	594.247
2764.87	571.448
2764.21	624.332
2763.55	582.619
2762.88	586.31
2762.22	597.565
2761.56	639.067
2760.9	608.721
2760.24	646.428
2759.58	570.733
2758.92	566.865
2758.26	570.555
2757.59	596.911
2756.93	589.263
2756.27	634.492
2755.61	581.526
2754.95	581.435
2754.28	588.894
2753.62	588.802
2752.96	588.71
2752.3	622.577
2751.63	611.161
2750.97	603.522
2750.31	629.827
2749.64	674.979
2748.98	629.63
2748.32	701.155
2747.65	621.895
2746.99	659.482
2746.33	614.165
2745.66	621.603
2745	598.906
2744.34	613.876
2743.67	606.249
2743.01	651.333
2742.34	621.117
2741.68	662.421
2741.02	647.264
2740.35	643.4
2739.69	586.87
2739.02	624.392
2738.36	601.729
2737.69	642.997
2737.03	597.781
2736.36	650.314
2735.7	646.454
2735.03	729.025
2734.37	612.436
2733.7	642.393
2733.04	672.341
2732.37	630.925
2731.7	627.071
2731.04	600.693
2730.37	604.352
2729.71	683.074
2729.04	656.699
2728.37	637.836
2727.71	660.244
2727.04	652.639
2726.37	626.286
2725.71	652.435
2725.04	704.819
2724.37	674.721
2723.71	678.363
2723.04	670.762
2722.37	693.137
2721.71	722.997
2721.04	647.973
2720.37	659.106
2719.7	636.537
2719.03	685.106
2718.37	662.539
2717.7	673.663
2717.03	699.751
2716.36	752.021
2715.69	673.346
2715.03	673.241
2714.36	695.573
2713.69	631.9
2713.02	788.816
2712.35	654.129
2711.68	661.501
2711.01	751.078
2710.34	679.973
2709.67	661.189
2709.01	668.555
2708.34	731.934
2707.67	701.949
2707	660.774
2706.33	660.67
2705.66	724.011
2704.99	731.36
2704.32	723.783
2703.65	675.176
2702.98	682.529
2702.31	715.984
2701.64	697.229
2700.96	671.024
2700.29	711.919
2699.62	730.441
2698.95	689.339
2698.28	730.212
2697.61	655.597
2696.94	707.636
2696.27	748.487
2695.6	744.646
2694.92	748.251
2694.25	714.635
2693.58	755.459
2692.91	651.155
2692.24	729.179
2691.57	691.868
2690.89	773.58
2690.22	766.021
2689.55	698.977
2688.88	828.976
2688.2	650.439
2687.53	787.837
2686.86	817.438
2686.18	724.433
2685.51	828.324
2684.84	720.491
2684.17	779.791
2683.49	768.53
2682.82	768.409
2682.14	783.134
2681.47	738.479
2680.8	768.046
2680.12	715.988
2679.45	752.968
2678.78	801.061
2678.1	789.811
2677.43	734.075
2676.75	822.924
2676.08	778.319
2675.4	811.548
2674.73	811.42
2674.05	844.633
2673.38	800.053
2672.7	759.19
2672.03	803.504
2671.35	770.058
2670.68	862.477
2670	784.619
2669.33	728.989
2668.65	813.971
2667.98	828.64
2667.3	832.208
2666.62	832.077
2665.95	791.273
2665.27	872.481
2664.59	864.951
2663.92	868.511
2663.24	831.422
2662.56	849.764
2661.89	857.018
2661.21	831.029
2660.53	816.126
2659.86	875.074
2659.18	841.711
2658.5	852.652
2657.83	830.374
2657.15	845.003
2656.47	822.733
2655.79	863.181
2655.11	885.174
2654.44	873.971
2653.76	840.65
2653.08	954.798
2652.4	873.558
2651.72	891.847
2651.05	906.445
2650.37	851.04
2649.69	954.046
2649.01	917.065
2648.33	924.285
2647.65	916.776
2646.97	920.312
2646.29	887.041
2645.61	949.463
2644.93	919.877
2644.25	901.337
2643.57	904.873
2642.9	970.93
2642.22	882.524
2641.54	922.828
2640.86	852.838
2640.18	834.326
2639.49	955.465
2638.81	892.851
2638.13	878.015
2637.45	899.915
2636.77	943.844
2636.09	881.271
2635.41	921.517
2634.73	869.981
2634.05	917.556
2633.37	851.358
2632.69	862.23
2632	895.11
2631.32	935.316
2630.64	946.17
2629.96	876.353
2629.28	861.549
2628.6	964.05
2627.91	919.917
2627.23	989.396
2626.55	937.946
2625.87	923.145
2625.18	922.999
2624.5	926.515
2623.82	904.399
2623.14	882.291
2622.45	845.547
2621.77	896.651
2621.09	951.397
2620.4	943.93
2619.72	965.729
2619.04	987.521
2618.35	958.11
2617.67	917.739
2616.98	961.462
2616.3	972.276
2615.62	920.958
2614.93	1001.2
2614.25	953.547
2613.56	1011.84
2612.88	920.375
2612.19	1022.48
2611.51	985.804
2610.83	1007.55
2610.14	927.093
2609.46	996.285
2608.77	934.097
2608.08	948.542
2607.4	962.983
2606.71	948.242
2606.03	991.85
2605.34	1101.07
2604.66	1060.8
2603.97	973.155
2603.28	1024.02
2602.6	1038.43
2601.91	961.764
2601.23	998.036
2600.54	939.608
2599.85	939.459
2599.17	1019.41
2598.48	1001.04
2597.79	1037.28
2597.11	1018.92
2596.42	1033.31
2595.73	1047.7
2595.04	978.428
2594.36	1040.1
2593.67	1018.12
2592.98	1007.05
2592.29	1072.32
2591.61	1064.88
2590.92	988.4
2590.23	1024.58
2589.54	1038.94
2588.85	1071.47
2588.16	1060.4
2587.48	1074.76
2586.79	1089.11
2586.1	1085.31
2585.41	1077.88
2584.72	1070.45
2584.03	1055.77
2583.34	1091.87
2582.65	1135.22
2581.96	1051.64
2581.27	1102.23
2580.58	1011.43
2579.9	1083.76
2579.21	1083.59
2578.52	1065.3
2577.83	1141.21
2577.14	1043.23
2576.44	1035.82
2575.75	1039.27
2575.06	1053.59
2574.37	1122.21
2573.68	1147.36
2572.99	1147.18
2572.3	1103.58
2571.61	1074.46
2570.92	1157.49
2570.23	1229.63
2569.54	1149.89
2568.84	1095.47
2568.15	1066.38
2567.46	1084.28
2566.77	1102.18
2566.08	1159.81
2565.39	1195.76
2564.69	1126.94
2564	1115.92
2563.31	1090.47
2562.62	1122.79
2561.92	1180.37
2561.23	1126.04
2560.54	1230.51
2559.85	1132.9
2559.15	1103.86
2558.46	1165
2557.77	1150.39
2557.07	1070.89
2556.38	1085.14
2555.69	1182.29
2554.99	1232.55
2554.3	1189.12
2553.6	1232.16
2552.91	1159.92
2552.22	1224.57
2551.52	1163.15
2550.83	1047.75
2550.13	1263.58
2549.44	1238.18
2548.74	1180.41
2548.05	1137.04
2547.35	1205.22
2546.66	1169.05
2545.96	1294.74
2545.27	1197.45
2544.57	1348.26
2543.88	1254.58
2543.18	1250.79
2542.49	1293.72
2541.79	1289.92
2541.1	1322.04
2540.4	1285.91
2539.7	1314.44
2539.01	1285.5
2538.31	1292.48
2537.61	1407.14
2536.92	1392.56
2536.22	1374.4
2535.52	1323.95
2534.83	1431.36
2534.13	1276.9
2533.43	1420.15
2532.74	1416.33
2532.04	1466.3
2531.34	1401.54
2530.64	1412.07
2529.95	1451.27
2529.25	1343.55
2528.55	1397.07
2527.85	1450.57
2527.15	1421.69
2526.46	1464.43
2525.76	1392.6
2525.06	1395.96
2524.36	1431.52
2523.66	1492.13
2522.96	1552.71
2522.26	1441.57
2521.57	1405.58
2520.87	1480.45
2520.17	1501.66
2519.47	1415.63
2518.77	1476.16
2518.07	1458.06
2517.37	1414.95
2516.67	1543.34
2515.97	1514.52
2515.27	1457.13
2514.57	1403.34
2513.87	1520.93
2513.17	1460
2512.47	1445.5
2511.77	1470.24
2511.07	1523.53
2510.37	1480.48
2509.66	1494.51
2508.96	1526.37
2508.26	1483.34
2507.56	1465.27
2506.86	1393.75
2506.16	1525.39
2505.46	1364.8
2504.76	1460.78
2504.05	1428.48
2503.35	1360.58
2502.65	1449.39
2501.95	1531.05
2501.25	1381.29
2500.54	1391.75
2499.84	1363.05
2499.14	1391.3
2498.44	1433.77
2497.73	1355.29
2497.03	1333.73
2496.33	1390.41
2495.62	1393.75
2494.92	1453.96
2494.22	1414.63
2493.51	1364.65
2492.81	1350.22
2492.11	1410.4
2491.4	1360.44
2490.7	1509.39
2489.99	1413.27
2489.29	1359.79
2488.59	1448.32
2487.88	1451.64
2487.18	1344.95
2486.47	1351.83
2485.77	1479.32
2485.06	1422.34
2484.36	1315.72
2483.65	1418.33
2482.95	1446.47
2482.24	1407.25
2481.54	1484.99
2480.83	1420.97
2480.13	1431.37
2479.42	1434.69
2478.71	1338.83
2478.01	1391.73
2477.3	1398.59
2476.6	1384.21
2475.89	1355.67
2475.18	1468.7
2474.48	1418.93
2473.77	1429.31
2473.06	1411.4
2472.36	1450.08
2471.65	1414.48
2470.94	1424.86
2470.24	1368.08
2469.53	1473.89
2468.82	1424.18
2468.11	1413.35
2467.41	1360.13
2466.7	1522.4
2465.99	1387.95
2465.28	1465.41
2464.57	1454.59
2463.87	1351.99
2463.16	1450.59
2462.45	1450.36
2461.74	1421.9
2461.03	1509.87
2460.32	1432.03
2459.61	1481.17
2458.9	1480.93
2458.2	1512.43
2457.49	1480.46
2456.78	1483.75
2456.07	1487.03
2455.36	1486.8
2454.65	1451.33
2453.94	1493.36
2453.23	1468.47
2452.52	1482.32
2451.81	1510.25
2451.1	1524.09
2450.39	1562.55
2449.68	1527.12
2448.97	1442.44
2448.26	1480.9
2447.55	1452.52
2446.83	1540.2
2446.12	1494.25
2445.41	1476.43
2444.7	1532.43
2443.99	1497.04
2443.28	1563.56
2442.57	1577.37
2441.85	1531.45
2441.14	1583.88
2440.43	1597.67
2439.72	1597.42
2439.01	1537.49
2438.29	1491.62
2437.58	1494.89
2436.87	1533.24
2436.16	1592.63
2435.44	1511.7
2434.73	1500.94
2434.02	1605.89
2433.3	1521.49
2432.59	1570.32
2431.88	1506.99
2431.16	1503.24
2430.45	1488.98
2429.74	1611.35
2429.02	1551.55
2428.31	1512.78
2427.6	1509.04
2426.88	1613.81
2426.17	1592.55
2425.45	1655.29
2424.74	1616.54
2424.02	1609.28
2423.31	1504.09
2422.59	1636.74
2421.88	1591.02
2421.16	1531.33
2420.45	1594.01
2419.73	1534.33
2419.02	1610.97
2418.3	1614.2
2417.59	1634.9
2416.87	1564.78
2416.16	1606.44
2415.44	1553.81
2414.72	1623.38
2414.01	1623.12
2413.29	1636.82
2412.57	1535.36
2411.86	1643.27
2411.14	1594.17
2410.42	1670.64
2409.71	1645.96
2408.99	1694.51
2408.27	1680.29
2407.56	1662.6
2406.84	1606.57
2406.12	1717.81
2405.4	1654.83
2404.69	1734.68
2403.97	1713.5
2403.25	1702.78
2402.53	1598.06
2401.81	1643.05
2401.1	1782.01
2400.38	1684.28
2399.66	1753.6
2398.94	1725.49
2398.22	1676.51
2397.5	1738.84
2396.78	1602.96
2396.06	1748.71
2395.35	1720.62
2394.63	1775.95
2393.91	1709.65
2393.19	1716.32
2392.47	1691.73
2391.75	1691.45
2391.03	1774.53
2390.31	1725.63
2389.59	1749.65
2388.87	1683.42
2388.15	1801.15
2387.43	1745.34
2386.71	1804.03
2385.98	1741.31
2385.26	1737.56
2384.54	1789.29
2383.82	1816.74
2383.1	1708.99
2382.38	1788.43
2381.66	1760.42
2380.94	1770.53
2380.21	1832.6
2379.49	1773.42
2378.77	1818.16
2378.05	1810.94
2377.33	1821.03
2376.6	1744.59
2375.88	1816.98
2375.16	1761.33
2374.44	1830.24
2373.71	1833.4
2372.99	1888.45
2372.27	1801.69
2371.55	1867.09
2370.82	1828.76
2370.1	1887.23
2369.38	1759.05
2368.65	1793.32
2367.93	1827.58
2367.21	1813.47
2366.48	1768.28
2365.76	1743.82
2365.03	1871.29
2364.31	1857.18
2363.58	1860.33
2362.86	1904.89
2362.14	1873.53
2361.41	1907.73
2360.69	1876.37
2359.96	1848.48
2359.24	1875.77
2358.51	1792.73
2357.79	1809.67
2357.06	1857.63
2356.33	1884.9
2355.61	1894.93
2354.88	1898.07
2354.16	1914.98
2353.43	1845.8
2352.71	1876.49
2351.98	1934.71
2351.25	1927.51
2350.53	1906.55
2349.8	1730.76
2349.07	1861.21
2348.35	2008.82
2347.62	1888.12
2346.89	1949.72
2346.17	1877.2
2345.44	1904.4
2344.71	1818.16
2343.98	1855.67
2343.26	1975.63
2342.53	1944.39
2341.8	1968.12
2341.07	1988.41
2340.34	1984.65
2339.62	1977.46
2338.89	1935.95
2338.16	1915.05
2337.43	1993.66
2336.7	2003.63
2335.97	1993.02
2335.24	2023.56
2334.52	1985.52
2333.79	1981.77
2333.06	1978.02
2332.33	1994.83
2331.6	2001.37
2330.87	1983.91
2330.14	1911.65
2329.41	1955.87
2328.68	2024.04
2327.95	2081.93
2327.22	2019.97
2326.49	2016.22
2325.76	1991.93
2325.03	2080.58
2324.3	2100.77
2323.57	2073.07
2322.83	2110.35
2322.1	2062.14
2321.37	2181.48
2320.64	2153.77
2319.91	2071.39
2319.18	2221.43
2318.45	2094.64
2317.71	2104.55
2316.98	2175.94
2316.25	2138.02
2315.52	2154.75
2314.79	2212.44
2314.05	2078.95
2313.32	2204.9
2312.59	2071.45
2311.86	2122.29
2311.12	2063.95
2310.39	2234.17
2309.66	2261.09
2308.92	2172.07
2308.19	2192.17
2307.46	2103.19
2306.72	2065.36
2305.99	2088.88
2305.26	2085.13
2304.52	2105.23
2303.79	2057.21
2303.05	2148.82
2302.32	2145.07
2301.59	2151.53
2300.85	2226.06
2300.12	2123.6
2299.38	2079.02
2298.65	2163.74
2297.91	2119.17
2297.18	2271.87
2296.44	2186.49
2295.71	2094.34
2294.97	2206.18
2294.24	2195.62
2293.5	2134.1
2292.76	2075.99
2292.03	2034.89
2291.29	2224.77
2290.56	2071.58
2289.82	2095.02
2289.08	2210.1
2288.35	2148.65
2287.61	2026.12
2286.87	2239.57
2286.14	2113.67
2285.4	2065.84
2284.66	2116.38
2283.93	2248.29
2283.19	2217.41
2282.45	2261.12
2281.71	2267.53
2280.98	2189.22
2280.24	2192.25
2279.5	2103.81
2278.76	2191.54
2278.02	2181.02
2277.29	2194.21
2276.55	2176.93
2275.81	2176.57
2275.07	2149.14
2274.33	2196.17
2273.59	2249.95
2272.85	2137.95
2272.11	2164.66
2271.37	2235.32
2270.64	2346.54
2269.9	2204.17
2269.16	2203.81
2268.42	2159.52
2267.68	2189.58
2266.94	2145.3
2266.2	2209.13
2265.46	2208.78
2264.72	2181.4
2263.98	2258.7
2263.23	2315.72
2262.49	2207.34
2261.75	2308.22
2261.01	2216.74
2260.27	2310.84
2259.53	2313.84
2258.79	2310.09
2258.05	2235.53
2257.31	2353.16
2256.56	2373.01
2255.82	2288.36
2255.08	2220.6
2254.34	2307.83
2253.6	2253.56
2252.85	2374.44
2252.11	2353.85
2251.37	2249.09
2250.63	2319.42
2249.88	2285.39
2249.14	2338.86
2248.4	2355.3
2247.65	2264.08
2246.91	2290.63
2246.17	2377.69
2245.42	2357.13
2244.68	2333.21
2243.94	2272.33
2243.19	2285.4
2242.45	2251.42
2241.71	2271.22
2240.96	2391.78
2240.22	2438.41
2239.47	2360.78
2238.73	2266.38
2237.98	2373.43
2237.24	2275.71
2236.49	2436.42
2235.75	2362.21
2235	2355.11
2234.26	2579.47
2233.51	2320.81
2232.77	2380.79
2232.02	2430.69
2231.28	2346.49
2230.53	2429.9
2229.78	2452.96
2229.04	2321.89
2228.29	2519.16
2227.54	2394.82
2226.8	2464.75
2226.05	2484.44
2225.3	2390.3
2224.56	2426.73
2223.81	2382.83
2223.06	2412.55
2222.32	2418.85
2221.57	2515.46
2220.82	2404.68
2220.07	2451.11
2219.33	2514.23
2218.58	2403.51
2217.83	2386.4
2217.08	2452.85
2216.33	2572.73
2215.59	2448.71
2214.84	2525.13
2214.09	2454.59
2213.34	2587.75
2212.59	2510.54
2211.84	2409.99
2211.09	2533.08
2210.34	2546.01
2209.59	2388.79
2208.84	2605.23
2208.09	2504.74
2207.35	2634.39
2206.6	2553.94
2205.85	2613.52
2205.1	2683.09
2204.35	2629.33
2203.59	2598.92
2202.84	2548.52
2202.09	2658.02
2201.34	2501.06
2200.59	2660.48
2199.84	2676.69
2199.09	2623
2198.34	2629.23
2197.59	2645.43
2196.84	2575.13
2196.09	2614.63
2195.33	2723.96
2194.58	2583.85
2193.83	2676.52
2193.08	2576.35
2192.33	2755.42
2191.57	2655.27
2190.82	2644.87
2190.07	2677.65
2189.32	2720.4
2188.56	2640.25
2187.81	2719.51
2187.06	2788.78
2186.3	2718.62
2185.55	2754.68
2184.8	2684.54
2184.04	2710.65
2183.29	2673.71
2182.54	2732.98
2181.78	2659.57
2181.03	2798.4
2180.27	2758.16
2179.52	2701.36
2178.77	2757.25
2178.01	2670.65
2177.26	2656.96
2176.5	2785.71
2175.75	2672.65
2174.99	2685.46
2174.24	2843.94
2173.48	2843.47
2172.73	2727.17
2171.97	2766.43
2171.22	2650.17
2170.46	2732.44
2169.7	2731.99
2168.95	2830.75
2168.19	2813.76
2167.44	2737.26
2166.68	2865.72
2165.92	2660.36
2165.17	2802
2164.41	2837.88
2163.65	2741.63
2162.9	2764.3
2162.14	2869.51
2161.38	2766.69
2160.62	2779.44
2159.87	2792.19
2159.11	2791.73
2158.35	2824.27
2157.59	2883.18
2156.83	2853.02
2156.08	2760.22
2155.32	2861.98
2154.56	2861.51
2153.8	2795.12
2153.04	2794.66
2152.28	2912.82
2151.53	2998
2150.77	2967.86
2150.01	2759.89
2149.25	2868.1
2148.49	2867.63
2147.73	2923.12
2146.97	2869.98
2146.21	2872.8
2145.45	3069.74
2144.69	2937.65
2143.93	2900.99
2143.17	2791.99
2142.41	2830.99
2141.65	2784.5
2140.89	2925.38
2140.13	2813.16
2139.37	2898.13
2138.61	2881.23
2137.85	2956.31
2137.08	2949.25
2136.32	2873.24
2135.56	2820.24
2134.8	2790.23
2134.04	2957.16
2133.28	2950.11
2132.51	2903.69
2131.75	2932.74
2130.99	2928.98
2130.23	3007.2
2129.47	2865.72
2128.7	2888.2
2127.94	2972.94
2127.18	3038
2126.41	3060.44
2125.65	2968.2
2124.89	2997.19
2124.12	3042.55
2123.36	3009.31
2122.6	2838.56
2121.83	3057.42
2121.07	3060.19
2120.31	3020.42
2119.54	2967.57
2118.78	2954
2118.01	2982.95
2117.25	3002.08
2116.48	3076.79
2115.72	3066.47
2114.95	3124.81
2114.19	3000.1
2113.42	3071.5
2112.66	2976.25
2111.89	3080.28
2111.13	3004.66
2110.36	2997.64
2109.6	3095.09
2108.83	3061.94
2108.07	3159.34
2107.3	3139.25
2106.53	3086.52
2105.77	3024.04
2105	2968.09
2104.23	3257.84
2103.47	3113.84
2102.7	3012.26
2101.93	3213.86
2101.17	3164.44
2100.4	3115.04
2099.63	3166.66
2098.86	3016.3
2098.1	3051.63
2097.33	3086.94
2096.56	3083.18
2095.79	3157.54
2095.02	3026.83
2094.26	3208.56
2093.49	3146.22
2092.72	3201
2091.95	3102.9
2091.18	3164.17
2090.41	3131.14
2089.64	3130.62
2088.87	3120.35
2088.11	3197.84
2087.34	3158.32
2086.57	3242.26
2085.8	3063.08
2085.03	3117.78
2084.26	3149.74
2083.49	3217.4
2082.72	3093.52
2081.95	3144.94
2081.18	3235.28
2080.41	3205.54
2079.63	3198.53
2078.86	3217.46
2078.09	3126.13
2077.32	3284.49
2076.55	3228.83
2075.78	3289.88
2075.01	3305.54
2074.24	3279.08
2073.47	3178.11
2072.69	3132.23
2071.92	3167.34
2071.15	3160.34
2070.38	3205.15
2069.6	3243.46
2068.83	3297.94
2068.06	3255.33
2067.29	3232.15
2066.51	3280.14
2065.74	3192.27
2064.97	3114.13
2064.19	3230.01
2063.42	3391.11
2062.65	3296.82
2061.87	3257.5
2061.1	3340.97
2060.33	3153.04
2059.55	3278.49
2058.78	3300.56
2058	3274.18
2057.23	3409.23
2056.46	3337.66
2055.68	3285.47
2054.91	3291.38
2054.13	3216.63
2053.36	3370.93
2052.58	3409.08
2051.81	3347.24
2051.03	3427.3
2050.26	3417.06
2049.48	3400.38
2048.7	3316.03
2047.93	3399.25
2047.15	3376.14
2046.38	3204.87
2045.6	3355.7
2044.82	3274.65
2044.05	3270.89
2043.27	3415.19
2042.49	3388.88
2041.72	3465.55
2040.94	3423.15
2040.16	3474.05
2039.38	3409.15
2038.61	3492.19
2037.83	3305.14
2037.05	3391.39
2036.27	3384.4
2035.5	3448.11
2034.72	3437.9
2033.94	3418.05
2033.16	3430.33
2032.38	3391.23
2031.6	3483.78
2030.83	3630.88
2030.05	3495.47
2029.27	3469.21
2028.49	3600.2
2027.71	3573.94
2026.93	3464.28
2026.15	3559.92
2025.37	3434.28
2024.59	3430.5
2023.81	3500.45
2023.03	3445.39
2022.25	3486.48
2021.47	3566
2020.69	3546.18
2019.91	3587.23
2019.13	3474.56
2018.35	3646.88
2017.57	3588.65
2016.79	3501.64
2016	3517.06
2015.22	3574.07
2014.44	3503.09
2013.66	3636.86
2012.88	3553.1
2012.1	3533.33
2011.31	3631.85
2010.53	3714.36
2009.75	3720.13
2008.97	3492.64
2008.19	3600.68
2007.4	3692.72
2006.62	3637.82
2005.84	3528.64
2005.05	3598.3
2004.27	3553.01
2003.49	3651.36
2002.7	3800.74
2001.92	3573.57
2001.14	3582.55
2000.35	3591.52
1999.57	3626.01
1998.79	3759.32
1998	3755.51
1997.22	3777.2
1996.43	3712.83
1995.65	3559.27
1994.86	3660.63
1994.08	3691.87
1993.29	3640.3
1992.51	3821.2
1991.72	3721.87
1990.94	3743.54
1990.15	3583.78
1989.37	3739.11
1988.58	3868.94
1987.8	3658.34
1987.01	3819.94
1986.22	3701.64
1985.44	3739.18
1984.65	3744.92
1983.86	3658.48
1983.08	3896.22
1982.29	3857.44
1981.5	3955.28
1980.72	3887.92
1979.93	3871.4
1979.14	3829.47
1978.35	3892.33
1977.57	3809.15
1976.78	3843.43
1975.99	3757.11
1975.2	3896.09
1974.42	3784.41
1973.63	3805.99
1972.84	3691.19
1972.05	3953.74
1971.26	3804.09
1970.47	3901.71
1969.68	3942.26
1968.89	3875.06
1968.11	3912.43
1967.32	3826.26
1966.53	3841.46
1965.74	3957.97
1964.95	3979.48
1964.16	4007.3
1963.37	3974.99
1962.58	3930.02
1961.79	3837.62
1961	3909.74
1960.21	3788.9
1959.42	4047.57
1958.63	3948.88
1957.83	4020.93
1957.04	3799.02
1956.25	3943.75
1955.46	3905.18
1954.67	4008.78
1953.88	4064.96
1953.09	3859.02
1952.3	3990.99
1951.5	3961.91
1950.71	4024.38
1949.92	3894.31
1949.13	3862.11
1948.33	3981.35
1947.54	4091.09
1946.75	4084.1
1945.96	4152.79
1945.16	4060.67
1944.37	4041.08
1943.58	4128.65
1942.78	4159.47
1941.99	3994.95
1941.2	4104.53
1940.4	4069.2
1939.61	4077.97
1938.81	3989.13
1938.02	4095.5
1937.23	4116.85
1936.43	4065.81
1935.64	4178.4
1934.84	4111.64
1934.05	4205.31
1933.25	4119.7
1932.46	4194.48
1931.66	4112.04
1930.87	4237.08
1930.07	4091.81
1929.28	4062.85
1928.48	4150.14
1927.68	4155.73
1926.89	4129.91
1926.09	4195.16
1925.3	4310.62
1924.5	4222.01
1923.7	4349.98
1922.91	4226.87
1922.11	4204.21
1921.31	4150.18
1920.52	4350.21
1919.72	4252.27
1918.92	4198.26
1918.12	4081.57
1917.33	4221.93
1916.53	4133.48
1915.73	4139.06
1914.93	4379.59
1914.13	4237.9
1913.34	4115.06
1912.54	4302.24
1911.74	4173.17
1910.94	4141.17
1910.14	4356.42
1909.34	4361.95
1908.54	4236.08
1907.74	4373
1906.94	4237.79
1906.14	4146.4
1905.35	4214.48
1904.55	4220.03
1903.75	4322.46
1902.95	4306.12
1902.15	4414.75
1901.35	4314.05
1900.54	4253.98
1899.74	4268.88
1898.94	4339.98
1898.14	4323.65
1897.34	4432.17
1896.54	4344.04
1895.74	4427.56
1894.94	4404.98
1894.14	4307.55
1893.33	4359.85
1892.53	4399.65
1891.73	4455.03
1890.93	4444.94
1890.13	4303.95
1889.32	4449.68
1888.52	4455.17
1887.72	4675.58
1886.92	4438.1
1886.11	4403.1
1885.31	4508.22
1884.51	4498.13
1883.7	4506.71
1882.9	4599.31
1882.1	4508.31
1881.29	4619.55
1880.49	4351.29
1879.69	4338.12
1878.88	4511.51
1878.08	4544.95
1877.27	4537.97
1876.47	4518.57
1875.66	4527.13
1874.86	4383.46
1874.06	4531.82
1873.25	4512.43
1872.45	4555.14
1871.64	4585.43
1870.83	4457.39
1870.03	4335.61
1869.22	4570.71
1868.42	4517.2
1867.61	4569.17
1866.81	4450.55
1866	4620.36
1865.19	4551.37
1864.39	4714.9
1863.58	4568.44
1862.77	4524.29
1861.97	4600.99
1861.16	4702.44
1860.35	4602.54
1859.54	4744.22
1858.74	4715.56
1857.93	4690
1857.12	4580.88
1856.31	4700.8
1855.51	4672.17
1854.7	4581.67
1853.89	4732.46
1853.08	4657.44
1852.27	4699.95
1851.46	4705.34
1850.66	4565.46
1849.85	4722.31
1849.04	4761.68
1848.23	4609.5
1847.42	4787.88
1846.61	4808.7
1845.8	4718.34
1844.99	4708.28
1844.18	4744.54
1843.37	4743.74
1842.56	4792.31
1841.75	4871.73
1840.94	4716.67
1840.13	4882.43
1839.32	4903.19
1838.51	4985.62
1837.7	4981.69
1836.89	4860.65
1836.07	4893.73
1835.26	4717.28
1834.45	4759.62
1833.64	4826.58
1832.83	4816.53
1832.02	4892.7
1831.2	4938.05
1830.39	4829.49
1829.58	4890.23
1828.77	5154.03
1827.95	5008.57
1827.14	5149.22
1826.33	5003.8
1825.52	4996.81
1824.7	5155.84
1823.89	5173.42
1823.08	5246.31
1822.26	5183.97
1821.45	5146.23
1820.63	5268.23
1819.82	5138.35
1819.01	5269.53
1818.19	5388.39
1817.38	5230.92
1816.56	5245.38
1815.75	5315.08
1814.93	5216
1814.12	5255
1813.3	5235.72
1812.49	5072.3
1811.67	5203.29
1810.86	5199.35
1810.04	5091.19
1809.23	5102.59
1808.41	5110.92
1807.59	5125.38
1806.78	5243.98
1805.96	5089.97
1805.15	5229.96
1804.33	5017.83
1803.51	5108.82
1802.7	5062.05
1801.88	5015.3
1801.06	5106.23
1800.24	5087.02
1799.43	5095.34
1798.61	4889.6
1797.79	5084.45
1796.97	5132.5
1796.16	5220.27
1795.34	5231.61
1794.52	5258.23
1793.7	4967.13
1792.88	5082.36
1792.06	5148.68
1791.24	5092.85
1790.43	5107.26
1789.61	5106.4
1788.79	5062.81
1787.97	5208.41
1787.15	5106.86
1786.33	4953.49
1785.51	5248.47
1784.69	5268.93
1783.87	5173.53
1783.05	5169.61
1782.23	5043.79
1781.41	5277.56
1780.59	5112.15
1779.77	5135.66
1778.95	5095.2
1778.13	5213.09
1777.3	5248.75
1776.48	5330.05
1775.66	5183.06
1774.84	5206.53
1774.02	5245.2
1773.2	5125.68
1772.37	5264.72
1771.55	5285.11
1770.73	5223.41
1769.91	5131.33
1769.08	5407.05
1768.26	5178.22
1767.44	5131.77
1766.62	5301.02
1765.79	5294.05
1764.97	5092.73
1764.15	5328.7
1763.32	5339.94
1762.5	5396.7
1761.68	5365.44
1760.85	5297.78
1760.03	5287.79
1759.2	5362.72
1758.38	5407.3
1757.55	5312.39
1756.73	5557.06
1755.91	5131.76
1755.08	5300.6
1754.26	5481.51
1753.43	5416.96
1752.6	5316.09
1751.78	5293.99
1750.95	5293.09
1750.13	5395.13
1749.3	5363.95
1748.48	5381.2
1747.65	5452.91
1746.82	5385.43
1746	5402.67
1745.17	5362.43
1744.34	5437.12
1743.52	5460.39
1742.69	5459.47
1741.86	5376.93
1741.04	5472.73
1740.21	5453.67
1739.38	5365.14
1738.55	5445.78
1737.72	5387.48
1736.9	5422.8
1736.07	5545.65
1735.24	5405.87
1734.41	5504.54
1733.58	5636.37
1732.75	5487.59
1731.93	5525.87
1731.1	5660.65
1730.27	5469.72
1729.44	5384.38
1728.61	5392.51
1727.78	5638.73
1726.95	5595.58
1726.12	5525.34
1725.29	5425
1724.46	5532.5
1723.63	5682.12
1722.8	5587.83
1721.97	5607.95
1721.14	5646.13
1720.31	5500.73
1719.48	5469.71
1718.65	5492.85
1717.81	5630.26
1716.98	5457.9
1716.15	5628.35
1715.32	5537.21
1714.49	5545.29
1713.66	5640.51
1712.82	5627.54
1711.99	5656.62
1711.16	5604.6
1710.33	5810.86
1709.49	5500.61
1708.66	5568.72
1707.83	5606.8
1707	5725.88
1706.16	5739.91
1705.33	5651.94
1704.5	5704.97
1703.66	5686.01
1702.83	5646.06
1701.99	5597.13
1701.16	5716.08
1700.33	5583.24
1699.49	5687.17
1698.66	5719.16
1697.82	5676.25
1696.99	5857.97
1696.15	5782.12
1695.32	5736.23
1694.48	5831.04
1693.65	5761.21
1692.81	5841.02
1691.98	5863.97
1691.14	5803.14
1690.3	5817.11
1689.47	5681.56
1688.63	5848.02
1687.8	5763.32
1686.96	5869.94
1686.12	5937.67
1685.29	5888.86
1684.45	5908.76
1683.61	5874.9
1682.78	5778.35
1681.94	5929.63
1681.1	5907.73
1680.26	5915.68
1679.43	5956.45
1678.59	5991.24
1677.75	5963.37
1676.91	6027.97
1676.07	6026.95
1675.23	6166.06
1674.4	6078.55
1673.56	6065.6
1672.72	6064.56
1671.88	6236.35
1671.04	6086.33
1670.2	6097.21
1669.36	6337.4
1668.52	6336.32
1667.68	6275.69
1666.84	6334.16
1666	6419.38
1665.16	6397.46
1664.32	6393.4
1663.48	6401.23
1662.64	6480.44
1661.8	6482.31
1660.96	6638.77
1660.12	6453.34
1659.28	6499.8
1658.44	6644.29
1657.59	6559.97
1656.75	6662.82
1655.91	6765.63
1655.07	6699.15
1654.23	6626.75
1653.38	6676.09
1652.54	6648.23
1651.7	6641.17
1650.86	6589.59
1650.01	6671.53
1649.17	6703.02
1648.33	6630.7
1647.48	6671.08
1646.64	6732.19
1645.8	6633.24
1644.95	6664.7
1644.11	6693.19
1643.27	6535.04
1642.42	6637.59
1641.58	6683.84
1640.73	6635.33
1639.89	6616.43
1639.04	6553.15
1638.2	6771.02
1637.36	6574.58
1636.51	6671.08
1635.67	6587.12
1634.82	6736.82
1633.97	6670.62
1633.13	6651.74
1632.28	6721.55
1631.44	6587.41
1630.59	6686.75
1629.74	6567.43
1628.9	6640.15
1628.05	6547.47
1627.2	6626.07
1626.36	6692.84
1625.51	6886.52
1624.66	6832.22
1623.82	6893.01
1622.97	6714.82
1622.12	6743.17
1621.27	6777.41
1620.43	6776.25
1619.58	6689.59
1618.73	6770.98
1617.88	6648.99
1617.03	6827.6
1616.19	6667.34
1615.34	6736.89
1614.49	6891.84
1613.64	6884.77
1612.79	7133.85
1611.94	6888.3
1611.09	7049
1610.24	6930.08
1609.39	7087.78
1608.54	7089.51
1607.69	7203
1606.84	7240
1605.99	7103.51
1605.14	7169.9
1604.29	7371.48
1603.44	7273.24
1602.59	7542.31
1601.74	7629.15
1600.89	7589.66
1600.04	7688.2
1599.18	7807.27
1598.33	8070.14
1597.48	8221.39
1596.63	8008.68
1595.78	8253.78
1594.92	8440.12
1594.07	8632.26
1593.22	9176.26
1592.37	9195.21
1591.51	9363.67
1590.66	9631.73
1589.81	10093.1
1588.96	10425.4
1588.1	10953.9
1587.25	11614
1586.39	12525.7
1585.54	13560.2
1584.69	14784.5
1583.83	16438.7
1582.98	18484.5
1582.12	20711.1
1581.27	23302.5
1580.42	25960.4
1579.56	28801.6
1578.71	31179.8
1577.85	32829.2
1576.99	34109.7
1576.14	34732.3
1575.28	34846.1
1574.43	34399
1573.57	33767.9
1572.72	31986.4
1571.86	30815.8
1571	28988.7
1570.15	27229.3
1569.29	24916.1
1568.43	22930.4
1567.58	20936.7
1566.72	18972.8
1565.86	17476.2
1565.01	15980.2
1564.15	14618.8
1563.29	13237.4
1562.43	12672.6
1561.58	11525.2
1560.72	10966.7
1559.86	10408.5
1559	9859.1
1558.14	9770.05
1557.28	9407.33
1556.42	9167.01
1555.57	9124.68
1554.71	9038.72
1553.85	9313.58
1552.99	8913.43
1552.13	8600.68
1551.27	8602.11
1550.41	8655.88
1549.55	8427.64
1548.69	8638.37
1547.83	8203.87
1546.97	8161.79
1546.11	7837.92
1545.25	7973.09
1544.39	7910.73
1543.53	7740.96
1542.66	7626.41
1541.8	7651.22
1540.94	7455.46
1540.08	7413.56
1539.22	7412.28
1538.36	7408.1
1537.49	7311.13
1536.63	7312.77
1535.77	7381.09
1534.91	7327.64
1534.04	7288.71
1533.18	7194.73
1532.32	7184.8
1531.46	7218.32
1530.59	7078.06
1529.73	7152.13
1528.87	7197.22
1528	7204.66
1527.14	7151.33
1526.27	7326.61
1525.41	7154.65
1524.55	7167.88
1523.68	7152.19
1522.82	7156.74
1521.95	7158.4
1521.09	7333.49
1520.22	7262.86
1519.36	7255.83
1518.49	7113.02
1517.63	7218.67
1516.76	7101.9
1515.89	7106.45
1515.03	7136.98
1514.16	7060.7
1513.3	7140.29
1512.43	7179.46
1511.56	7186.88
1510.7	7211.6
1509.83	7219.01
1508.96	7015.91
1508.1	7014.7
1507.23	7206.63
1506.36	7239.97
1505.49	7025.48
1504.63	7260.52
1503.76	7204.54
1502.89	7188.89
1502.02	7141.58
1501.15	7215.2
1500.29	7067.15
1499.42	7189.69
1498.55	7222.98
1497.68	7331.06
1496.81	7289.52
1495.94	7222.11
1495.07	7275.5
1494.2	7492.76
1493.33	7339.11
1492.46	7263.11
1491.59	7345.2
1490.72	7369.79
1489.85	7196.15
1488.98	7332.77
1488.11	7288.43
1487.24	7396.28
1486.37	7466.77
1485.5	7310.49
1484.63	7395.32
1483.76	7523.15
1482.88	7447.27
1482.01	7431.64
1481.14	7350.06
1480.27	7804.68
1479.4	7465.05
1478.53	7650.07
1477.65	7548.44
1476.78	7621.64
1475.91	7563.02
1475.03	7564.58
1474.16	7586.18
1473.29	7567.69
1472.42	7534.89
1471.54	7470.62
1470.67	7466.46
1469.79	7367.88
1468.92	7415.24
1468.05	7439.7
1467.17	7575.69
1466.3	7611.55
1465.42	7544.48
1464.55	7560.32
1463.67	7353.25
1462.8	7386.26
1461.92	7422.12
1461.05	7429.41
1460.17	7413.84
1459.3	7378.3
1458.42	7397
1457.55	7487.06
1456.67	7462.93
1455.79	7572.92
1454.92	7414.7
1454.04	7396.3
1453.17	7483.43
1452.29	7524.91
1451.41	7324.04
1450.53	7485.24
1449.66	7418.4
1448.78	7465.55
1447.9	7478.5
1447.02	7437.33
1446.15	7678.12
1445.27	7463.23
1444.39	7587.2
1443.51	7654.2
1442.63	7430.89
1441.76	7421.06
1440.88	7587.63
1440	7444.09
1439.12	7664.63
1438.24	7484.16
1437.36	7536.88
1436.48	7484.41
1435.6	7557
1434.72	7657.99
1433.84	7594.16
1432.96	7754.75
1432.08	7605.72
1431.2	7882.68
1430.32	7762.07
1429.44	7508.09
1428.56	7608.96
1427.68	7616.15
1426.8	7796.4
1425.91	7590.81
1425.03	7646.22
1424.15	7656.23
1423.27	7799.5
1422.39	7647.9
1421.51	7720.27
1420.62	7707.59
1419.74	7666.59
1418.86	7812.55
1417.98	7808.37
1417.09	7767.37
1416.21	7686.74
1415.33	7787.31
1414.44	7848.23
1413.56	7668.59
1412.68	7930.38
1411.79	7733.81
1410.91	7882.37
1410.02	7847.06
1409.14	7772.19
1408.26	7912.18
1407.37	7732.75
1406.49	7960.29
1405.6	7876.98
1404.72	7844.53
1403.83	8018.28
1402.95	7909.58
1402.06	8023.96
1401.18	7932.23
1400.29	7738.93
1399.4	7954.87
1398.52	7981.7
1397.63	7923.89
1396.75	7928.16
1395.86	8050.85
1394.97	8001.52
1394.08	8008.59
1393.2	8238.3
1392.31	8217.15
1391.42	8024.13
1390.54	8129.78
1389.65	8317.06
1388.76	8281.83
1387.87	8083.3
1386.98	8126.93
1386.1	8069.23
1385.21	8219.78
1384.32	8012.96
1383.43	7972.18
1382.54	8004.54
1381.65	8076.26
1380.76	7987.7
1379.87	7907.59
1378.98	7996.16
1378.09	7887.98
1377.21	7900.65
1376.32	7907.7
1375.43	8102.93
1374.53	8036.93
1373.64	7906.38
1372.75	8166.07
1371.86	8013.08
1370.97	7980.82
1370.08	8055.18
1369.19	8140.74
1368.3	8142.12
1367.41	8121.07
1366.52	8052.37
1365.62	7994.9
1364.73	8074.78
1363.84	8210.69
1362.95	8136.41
1362.05	8129.39
1361.16	8158.78
1360.27	8176.96
1359.38	8181.13
1358.48	8137.71
1357.59	8083.11
1356.7	7927.79
1355.8	8217.39
1354.91	8285.89
1354.02	8309.62
1353.12	8179.53
1352.23	8256.39
1351.33	8355.58
1350.44	8200.4
1349.54	8232.5
1348.65	8172.39
1347.75	8039.67
1346.86	8032.68
1345.96	8062
1345.07	8169.48
1344.17	8098.26
1343.28	7923.8
1342.38	8075.9
1341.49	8035.43
1340.59	8008.92
1339.69	8166.5
1338.8	8089.78
1337.9	8113.46
1337	8376.86
1336.11	8252.76
1335.21	8293.12
1334.31	8149.58
1333.41	8084.08
1332.52	8180.15
1331.62	8148.09
1330.72	8182.86
1329.82	8139.67
1328.92	8129.9
1328.03	8114.56
1327.13	8132.62
1326.23	8150.67
1325.33	8227.12
1324.43	8136.7
1323.53	8196.44
1322.63	8036.55
1321.73	8087.96
1320.83	7936.48
1319.93	7982.32
1319.03	8230.94
1318.13	8007.3
1317.23	8153.08
1316.33	8148.88
1315.43	8130.8
1314.53	8096.07
1313.63	8119.62
1312.73	8109.88
1311.83	8016.92
1310.93	8084.85
1310.03	8141.67
1309.12	8359.27
1308.22	7989.12
1307.32	8106.9
1306.42	8166.45
1305.52	8059.73
1304.61	8218.99
1303.71	8239.71
1302.81	8324.11
1301.9	8214.67
1301	8575.86
1300.1	8269.91
1299.19	8445.57
1298.29	8510.49
1297.39	8517.29
1296.48	8634.73
1295.58	8467.3
1294.68	8532.17
1293.77	8436.69
1292.87	8537.47
1291.96	8500.05
1291.06	8393.57
1290.15	8458.39
1289.25	8247
1288.34	8201.38
1287.44	8172.33
1286.53	8292.35
1285.62	8216.38
1284.72	8115.6
1283.81	8343.17
1282.91	8107.23
1282	8133.39
1281.09	8195.39
1280.19	8136.05
1279.28	8242.13
1278.37	8169.02
1277.46	8277.81
1276.56	8301.15
1275.65	8167.47
1274.74	8397.39
1273.83	8283.01
1272.93	8589.91
1272.02	8525.09
1271.11	8518.09
1270.2	8689.95
1269.29	8622.4
1268.38	8634.64
1267.47	8828.39
1266.57	8947.83
1265.66	8949.01
1264.75	8994.16
1263.84	8868.91
1262.93	9260.29
1262.02	9099.32
1261.11	9125.19
1260.2	9101.61
1259.29	9229.07
1258.38	9224.7
1257.47	9080.34
1256.55	9084.23
1255.64	9137.52
1254.73	9105.73
1253.82	9032.81
1252.91	8748.74
1252	8758.17
1251.09	8874.52
1250.17	8639.96
1249.26	8693.25
1248.35	8650.62
1247.44	8734.03
1246.52	8521.58
1245.61	8569.37
1244.7	8584.29
1243.78	8604.68
1242.87	8463.57
1241.96	8459.34
1241.04	8345.67
1240.13	8560.33
1239.22	8553.35
1238.3	8625.68
1237.39	8435.49
1236.47	8669.12
1235.56	8498.12
1234.64	8482.96
1233.73	8435.02
1232.81	8433.53
1231.9	8617.78
1230.98	8476.99
1230.07	8358.08
1229.15	8525.87
1228.24	8546.2
1227.32	8498.3
1226.4	8633.23
1225.49	8560.78
1224.57	8512.9
1223.65	8500.49
1222.74	8297.22
1221.82	8595.64
1220.9	8528.71
1219.99	8600.78
1219.07	8512.08
1218.15	8469.71
1217.23	8650.71
1216.31	8698.2
1215.4	8612.26
1214.48	8237.78
1213.56	8484.02
1212.64	8585.93
1211.72	8598.02
1210.8	8640.03
1209.88	8507.95
1208.96	8326.97
1208.05	8513.11
1207.13	8473.54
1206.21	8626.98
1205.29	8660.78
1204.37	8604.91
1203.45	8467.56
1202.53	8498.66
1201.6	8727.99
1200.68	8582.54
1199.76	8667.9
1198.84	8750.51
1197.92	8708.26
1197	8766.41
1196.08	8838.1
1195.16	8717.2
1194.23	8772.61
1193.31	8952.72
1192.39	9089.39
1191.47	9117.59
1190.54	9544.14
1189.62	9715.86
1188.7	10323.6
1187.78	10633.3
1186.85	11324.6
1185.93	11991.4
1185.01	12425.1
1184.08	13010.2
1183.16	13503.1
1182.23	13898.4
1181.31	13982.5
1180.39	14120.7
1179.46	13818.1
1178.54	13212.7
1177.61	12783.3
1176.69	12305.3
1175.76	11878.9
1174.84	11039.3
1173.91	10659.1
1172.98	10230.5
1172.06	9850.68
1171.13	9479.06
1170.21	9069.78
1169.28	9176.13
1168.35	9053.08
1167.43	8859.92
1166.5	8998.62
1165.57	9107.6
1164.65	8979.26
1163.72	8726.94
1162.79	8992.25
1161.86	8885.55
1160.94	8991.76
1160.01	8903.96
1159.08	8848.51
1158.15	8938.51
1157.22	8737.67
1156.29	8927.26
1155.37	9022.58
1154.44	8856.82
1153.51	8992.48
1152.58	9313.71
1151.65	9209.85
1150.72	9046.86
1149.79	9131.3
1148.86	9086.67
1147.93	9103.87
1147	9252.75
1146.07	9404.27
1145.14	9284.39
1144.21	9360.64
1143.28	9581.88
1142.35	9402.97
1141.41	9457.67
1140.48	9737.82
1139.55	9736.1
1138.62	9938.29
1137.69	9807.76
1136.76	10036.7
1135.82	10211.9
1134.89	10266.4
1133.96	10176.1
1133.03	10300.3
1132.09	10633.4
1131.16	10722.6
1130.23	10811.8
1129.29	10820.6
1128.36	10716.9
1127.43	10996.1
1126.49	10978.1
1125.56	11334.8
1124.62	11268.6
1123.69	11502
1122.75	11609.7
1121.82	11789.5
1120.89	12113.6
1119.95	12320
1119.01	12384.6
1118.08	12719.2
1117.14	12997.5
1116.21	12864.3
1115.27	13046.3
1114.34	13164.2
1113.4	12833.4
1112.46	13335.7
1111.53	13541.6
1110.59	13565.8
1109.65	13926.3
1108.72	13878.5
1107.78	14449.5
1106.84	14430.9
1105.9	14812.4
1104.97	15044.3
1104.03	15540.1
1103.09	15894.5
1102.15	15958.3
1101.21	16371
1100.28	17124.6
1099.34	17398.5
1098.4	17951.9
1097.46	18433.2
1096.52	18909.1
1095.58	19312.9
1094.64	18950.2
1093.7	19236.8
1092.76	19467.5
1091.82	19437.4
1090.88	19697.2
1089.94	20345
1089	21532.1
1088.06	23234.4
1087.12	25254.9
1086.18	28337.3
1085.24	32321.7
1084.29	36838.4
1083.35	42734.2
1082.41	47717.3
1081.47	52690.7
1080.53	57097.1
1079.58	60634.3
1078.64	62384.9
1077.7	63071.3
1076.76	62017.9
1075.81	60951.6
1074.87	58568.2
1073.93	54974.5
1072.98	50936.8
1072.04	46405.1
1071.1	41594.2
1070.15	36652.6
1069.21	31985.6
1068.26	28352.7
1067.32	24792.6
1066.38	21678.4
1065.43	19689.9
1064.49	17908.5
1063.54	16500.7
1062.6	15503.4
1061.65	14501.1
1060.7	13977.7
1059.76	13644.8
1058.81	13158.7
1057.87	13127.3
1056.92	12253.1
1055.97	12364.5
1055.03	11805.1
1054.08	11457
1053.13	11370.5
1052.19	11088.7
1051.24	10907.3
1050.29	10749.6
1049.34	10610.5
1048.4	10545.3
1047.45	10398.4
1046.5	10227.8
1045.55	10334.1
1044.6	10131.9
1043.65	10122.2
1042.71	9975.45
1041.76	9918.35
1040.81	10235.3
1039.86	9875.3
1038.91	9915.66
1037.96	9808.59
1037.01	9717.35
1036.06	9818.24
1035.11	9705.98
1034.16	9698.98
1033.21	9718.29
1032.26	9758.63
1031.31	9585.99
1030.36	9418.66
1029.4	9364.41
1028.45	9333.83
1027.5	9326.91
1026.55	9635.2
1025.6	9601.96
1024.65	9723.66
1023.69	9446.25
1022.74	9499.69
1021.79	9432.37
1020.84	9346.72
1019.88	9544.43
1018.93	9506
1017.98	9530.53
1017.02	9638.95
1016.07	10054.1
1015.12	10144
1014.16	10307.3
1013.21	10583.2
1012.25	10154.3
1011.3	10265.1
1010.34	10292.1
1009.39	9983.86
1008.43	9762.17
1007.48	9527.47
1006.52	9428.94
1005.57	9377.53
1004.61	9415.09
1003.66	9447.41
1002.7	9416.95
1001.74	9279.3
1000.79	9531.21
999.832	9336.09
998.875	9467.69
997.919	9348.42
996.962	9487.8
996.004	9282.38
995.047	9346
994.089	9190.28
993.132	9293.05
992.174	9338.36
991.216	9279.28
990.258	9209.78
989.299	9335.94
988.341	9180.39
987.382	9303.91
986.423	9153.63
985.464	9089.43
984.505	9150.35
983.545	9406.67
982.586	9217.41
981.626	9296.5
980.666	9438.07
979.706	9360.86
978.746	9286.29
977.785	9175.3
976.824	9295.96
975.864	9213.63
974.903	9136.53
973.941	9251.94
972.98	9325.69
972.019	9373.42
971.057	9296.35
970.095	9357.06
969.133	9342.38
968.171	9247.17
967.209	9432.54
966.246	9495.78
965.283	9452.53
964.32	9500.16
963.357	9443.94
962.394	9546.06
961.431	9528.77
960.467	9457
959.503	9525.34
958.54	9489.91
957.575	9602.3
956.611	9561.69
955.647	9469.24
954.682	9617.86
953.717	9447.7
952.752	9528.9
951.787	9490.92
950.822	9463.32
949.857	9508.22
948.891	9555.7
947.925	9641.99
946.959	9673.9
945.993	9568.65
945.026	9603.15
944.06	9407.43
943.093	9529.87
942.126	9592.79
941.159	9588.48
940.192	9715.99
939.225	9610.87
938.257	9459.28
937.289	9488.57
936.322	9778.73
935.353	9596.2
934.385	9480.87
933.417	9357.83
932.448	9480.03
931.479	9480.9
930.51	9587.56
929.541	9624.52
928.572	9759.48
927.602	9437.97
926.633	9168.13
925.663	9522.21
924.693	9389.05
923.723	9377.05
922.752	9468.11
921.782	9574.59
920.811	9459.54
919.84	9254.41
918.869	9399.49
917.898	9364.33
916.926	9447.57
915.955	9430.43
914.983	9446.74
914.011	9437.32
913.039	9525.62
912.067	9536.76
911.094	9537.61
910.122	9415.08
909.149	9541.88
908.176	9465.64
907.203	9476.78
906.229	9426.27
905.256	9581.21
904.282	9356.11
903.308	9695.84
902.334	9499.02
901.36	9433.15
900.386	9336.52
899.411	9378.44
898.436	9569.11
897.461	9528.91
896.486	9278.5
895.511	9489.58
894.536	9641.64
893.56	9568.15
892.584	9617.66
891.608	9679.96
890.632	9306.86
889.656	9545.87
888.679	9503.18
887.702	9688.32
886.726	9597
885.748	9587.59
884.771	9567.94
883.794	9507.38
882.816	9567.04
881.839	9718.72
880.861	9440.87
879.882	9863.45
878.904	9677.67
877.926	9502.18
876.947	9709.94
875.968	9613.68
874.989	9765.16
874.01	9868.07
873.031	9858.63
872.051	9708.81
871.072	9781.05
870.092	9728.26
869.112	9581.1
868.131	9778.29
867.151	9508.78
866.17	9731.41
865.19	9772.98
864.209	9832.38
863.228	9805.12
862.246	9663.22
861.265	9837.23
860.283	9756.49
859.301	9703.8
858.319	9971.9
857.337	9779.19
856.355	9869.03
855.372	9872.34
854.389	9608.52
853.407	9878.93
852.424	9811.02
851.44	9872.81
850.457	9934.57
849.473	9823.48
848.489	9697.18
847.505	9799.59
846.521	9922.29
845.537	9925.57
844.552	9867.9
843.568	9749.32
842.583	9973.47
841.598	9892.99
840.613	10053.6
839.627	10226.8
838.642	10039.8
837.656	10134.3
836.67	10043.8
835.684	10189
834.698	10126.3
833.711	10243.6
832.724	10196.1
831.738	10199.3
830.751	10230.4
829.763	10203.2
828.776	10176
827.789	10328.6
826.801	10321.7
825.813	10438.7
824.825	10477.3
823.837	10270.5
822.848	10579.7
821.859	10135.3
820.871	10196.7
819.882	10546.2
818.892	10402.7
817.903	10309.9
816.914	10353.5
815.924	10301.1
814.934	10417.9
813.944	10251.9
812.954	10292.9
811.963	10381.9
810.973	10337.1
809.982	10315.1
808.991	10000.4
808	10086.8
807.008	10016.9
806.017	10121
805.025	10189.7
804.033	9976.15
803.041	10067.6
802.049	9985.12
801.057	9922.84
800.064	10057
799.071	9994.78
798.078	10020.7
797.085	9890.45
796.092	9971.7
795.099	10068
794.105	10121.5
793.111	10036.7
792.117	9941.81
791.123	10007.9
790.128	9978.41
789.134	10036.9
788.139	10145.7
787.144	10086
786.149	9981.19
785.154	10125.1
784.158	9957.47
783.162	10226.8
782.167	10260.1
781.171	10263.3
780.174	10356.8
779.178	10359.9
778.181	10450.8
777.185	10311
776.188	10216.3
775.191	10201.9
774.193	10242.7
773.196	10178.1
772.198	10081
771.2	10186.9
770.202	10410.5
769.204	10341
768.206	10346.6
767.207	10337.2
766.208	10330.3
765.209	10288.4
764.21	10186.5
763.211	10404.7
762.212	10510.4
761.212	10526
760.212	10284
759.212	10487.2
758.212	10750.2
757.211	10835.7
756.211	10756.2
755.21	11001.6
754.209	11022.1
753.208	11539.5
752.207	12054.2
751.205	12920.7
750.203	14083.9
749.202	15181.7
748.2	16251.8
747.197	17595.8
746.195	19163.8
745.192	20549.2
744.19	21704.7
743.187	22483.4
742.183	22955.3
741.18	22340.7
740.177	21290.3
739.173	20021
738.169	18304
737.165	16943.7
736.161	15237.8
735.156	13903.4
734.152	12796
733.147	12062.2
732.142	11716.7
731.137	11336.5
730.131	10976.3
729.126	10685.9
728.12	10688.9
727.114	10696.9
726.108	10660.2
725.102	10447
724.095	10400.4
723.089	10617
722.082	10622.6
721.075	10533.7
720.068	10556.6
719.06	10698.6
718.053	10818.2
717.045	10798.9
716.037	10990.4
715.029	10871.8
714.021	10924.4
713.012	11073.6
712.004	11304.5
710.995	11359.5
709.986	11300.4
708.977	11345.4
707.967	11318.6
706.958	11351.1
705.948	11198
704.938	11208.4
703.928	11151.9
702.917	11216.6
701.907	10932.5
700.896	10965.2
699.885	10713.4
698.874	10746
697.863	10845.4
696.851	10717.4
695.84	10675.9
694.828	10738.1
693.816	10642.3
692.804	10494.6
691.791	10608.8
690.779	10337.7
689.766	10639.4
688.753	10484.5
687.74	10477.6
686.727	10446.1
685.713	10350.4
684.7	10508.8
683.686	10652.4
682.672	10571.5
681.658	10512.9
680.643	10560.3
679.629	10615
678.614	10290.3
677.599	10500.3
676.584	10493.4
675.568	10452.1
674.553	10592.9
673.537	10546.7
672.521	10365.1
671.505	10451.8
670.489	10619.6
669.472	10519.3
668.456	10596
667.439	10424.4
666.422	10449.6
665.405	10636.9
664.387	10664.4
663.37	10421.7
662.352	10306.8
661.334	10410.5
660.316	10497
659.297	10485.2
658.279	10431.7
657.26	10442.1
656.241	10545.7
655.222	10570.7
654.203	10468.2
653.183	10554.6
652.164	10557.5
651.144	10366.8
650.124	10551.2
649.104	10515
648.083	10579.2
647.063	10479.2
646.042	10418.5
645.021	10424
644	10610.6
642.978	10464.2
641.957	10711.9
640.935	10734.4
639.913	10612.5
638.891	10754.9
637.869	10755.4
636.846	10897.6
635.824	11526.3
634.801	12528.8
633.778	13831.4
632.755	15094.5
631.731	16826.1
630.708	17482.4
629.684	16866.3
628.66	15564.3
627.636	14211.5
626.611	12788.5
625.587	11985.8
624.562	11573.7
623.537	11364.3
622.512	10940.3
621.487	11050.4
620.461	10814.3
619.436	10822.1
618.41	10644.6
617.384	10754.8
616.357	10930.6
615.331	10689.9
614.304	10758.6
613.277	10724.9
612.25	10637.7
611.223	10626
610.196	10672.7
609.168	10765.7
608.141	10698
607.113	10788.4
606.084	10740.2
605.056	10842.8
604.028	10724.1
602.999	10603.1
601.97	10623
600.941	10844.5
599.912	10696.8
598.882	10653.5
597.852	10884.6
596.823	10751.5
595.793	10766.5
594.762	10701.5
593.732	10750.4
592.701	10624.7
591.671	10865.3
590.64	10623.2
589.608	10749.8
588.577	10757.5
587.545	10791.8
586.514	10600.8
585.482	10778.2
584.45	10749.5
583.417	10728.2
582.385	11007
581.352	10762.9
580.319	10823.9
579.286	10681.5
578.253	10861
577.219	10888
576.186	10852.1
575.152	10920.3
574.118	10872.3
573.083	11017.7
572.049	10824.8
571.014	11025.7
569.98	11163.8
568.945	11357.4
567.909	11579.9
566.874	11609.1
565.838	11524.9
564.803	11510.7
563.767	11590.6
562.73	11653.6
561.694	11704.5
560.658	11728.9
559.621	11671.3
558.584	11529.3
557.547	11558.5
556.509	11790.1
555.472	11720.5
554.434	11626.7
553.396	11706.5
552.358	11745.2
551.32	11564.9
550.282	11678.3
549.243	11871.1
548.204	11568.1
547.165	11739.2
546.126	11669.6
545.086	11631.4
544.047	11521
543.007	11466
541.967	11237.9
540.927	11339.2
539.886	11466.8
538.846	11452.7
537.805	11236.8
536.764	11381.2
535.723	11235
534.681	11338.6
533.64	11415.7
532.598	11324.8
531.556	11260.3
530.514	11301.4
529.472	11376
528.429	11345.1
527.387	11486.9
526.344	11494.3
525.301	11386.7
524.257	11214.5
523.214	11365.7
522.17	11375.6
521.126	11560.3
520.082	11146.3
519.038	11335.8
517.993	11376.7
516.949	11140.1
515.904	11473
514.859	11470.9
513.814	11188.9
512.768	11263.3
511.723	11266
510.677	11206.6
509.631	11197.3
508.585	11137.9
507.538	11162.1
506.492	11000
505.445	11380
504.398	11227.5
503.351	11246.9
502.303	11115.9
501.256	11044.6
500.208	11104.6
499.16	11145.5
498.112	11331.8
497.063	11115.1
496.015	11017.7
494.966	11089.5
493.917	11125.6
492.868	11190.2
491.819	11054.7
490.769	11238.5
489.72	11255.4
488.67	11108.1
487.62	11120.3
486.569	11025.4
485.519	10952
484.468	11092.7
483.417	11059.7
482.366	10993.4
481.315	11165
480.263	11051.1
479.212	11053.8
478.16	10754.7
477.108	11042.6
476.055	10966.9
475.003	11033.7
473.95	10898.7
472.897	10922.7
471.844	10756.9
470.791	11101.4
469.738	10819.3
468.684	11052.2
467.63	10884.1
466.576	11012.5
465.522	11121.9
464.468	11164.9
463.413	10921
462.358	11163.1
461.303	11246.3
460.248	11289.2
459.193	11232.7
458.137	11180.8
457.081	11337.4
456.025	11271.3
454.969	11387.6
453.913	11132.2
452.856	11527.7
451.799	11679.3
450.742	11568.3
449.685	11693.8
448.628	11684.6
447.57	11807.7
446.512	11942.6
445.454	11890.7
444.396	12115.3
443.338	11822.5
442.279	11912.4
441.221	12070.7
440.162	12007.1
439.102	11997.8
438.043	11981.4
436.983	11851.7
435.924	11913.2
434.864	11951
433.804	12128
432.743	12022
431.683	11920.8
430.622	11814.8
429.561	11970.5
428.5	12076.6
427.439	12010.8
426.377	12175.8
425.315	11813.2
424.253	12150
423.191	12025.3
422.129	12058.4
421.066	12187.9
420.004	12098.6
418.941	12126.9
417.878	12138.7
416.814	12120
415.751	12148.3
414.687	12343.4
413.623	12284.7
412.559	12439.8
411.495	12449.3
410.43	12564.3
409.365	12569
408.301	12562
407.235	12792
406.17	12738
405.105	12676.9
404.039	12550.2
402.973	12533.8
401.907	12482.2
400.84	12465.8
399.774	12433
398.707	12367.4
397.64	12130.8
396.573	11980.9
395.506	12084
394.438	11936.6
393.371	11913.3
392.303	11836.1
391.235	11649
390.166	11564.9
389.098	11607.2
388.029	11677.5
386.96	11551.4
385.891	11626.4
384.822	11675.6
383.752	11633.7
382.682	11654.9
381.613	11498.5
380.542	11482.3
379.472	11655.4
378.402	11597.1
377.331	11693
376.26	11637.1
375.189	11392.2
374.117	11390.1
373.046	11665.6
371.974	11241.2
370.902	11542.2
369.83	11430.5
368.758	11400.3
367.685	11414.5
366.613	11507.9
365.54	11592
364.466	11356.8
363.393	11340.7
362.32	11413.1
361.246	11303.9
360.172	11378.6
359.098	11271.7
358.023	11295.2
356.949	11265.1
355.874	11035.1
354.799	11460.9
353.724	11289
352.649	11435.7
351.573	11398.7
350.497	11633.6
349.421	11352.5
348.345	11450.3
347.269	11494.6
346.192	11587.6
345.115	11546
344.038	11532.2
342.961	11650.7
341.884	11776.2
340.806	11715.9
339.728	11736.9
338.65	11616.5
337.572	11864.7
336.494	11809.1
335.415	11946
334.336	11853.4
333.257	12180.1
332.178	12106
331.099	12340
330.019	12305.2
328.939	12395.5
327.859	12328.4
326.779	12599.1
325.699	12629.2
324.618	12592.1
323.537	12629
322.456	12804.7
321.375	12816.2
320.293	13155.9
319.212	12987
318.13	12982.2
317.048	13321.7
315.966	13233.8
314.883	13351.4
313.8	13258.8
312.718	13390.2
311.634	13399.2
310.551	13272.1
309.468	13373.4
308.384	13287.8
307.3	12992.4
306.216	13282.8
305.132	13384
304.047	13049.6
302.962	13005.6
301.877	13118.4
300.792	12996.1
299.707	12908.4
298.621	12876.1
297.536	12901.3
296.45	13163.6
295.364	12905.6
294.277	12755.9
293.191	12923.7
292.104	12997.2
291.017	12794.6
289.93	12783
288.842	12980.6
287.755	13031
286.667	12991.8
285.579	12989.4
284.491	13223.5
283.402	12943.1
282.314	12782.2
281.225	13115
280.136	13151.6
279.047	13094
277.957	13282
276.867	13160.2
275.778	13270.1
274.688	13260.7
273.597	13489.8
272.507	13246.5
271.416	13253.2
270.325	13479.8
269.234	13250.4
268.143	13124.2
267.051	13428.7
265.96	13458.2
264.868	13501.4
263.776	13672.8
262.683	13560.4
261.591	13534.9
260.498	13383.7
259.405	13513.8
258.312	13589
257.218	13584.1
256.125	13412.4
255.031	13355
253.937	13549
252.843	13480.2
251.748	13416
250.654	13185
249.559	13079.8
248.464	12908.3
247.369	12855.7
246.273	12880.6
245.178	12752.7
244.082	12531.3
242.986	12369.2
241.889	12462.7
240.793	12209.5
239.696	12100
238.599	12191.2
237.502	11885.8
236.405	12020.3
235.307	11915.5
234.21	12090.9
233.112	11995.2
232.014	12106.8
230.915	12056.7
229.817	12031.6
228.718	11945.2
227.619	11974.7
226.52	12156.7
225.42	12124.8
224.321	12027
223.221	12304.3
222.121	12340.6
221.021	12331.5
219.92	12145.1
218.82	12299.5
217.719	12410.8
216.618	12437.9
215.516	12333.4
214.415	12383.3
213.313	12419.5
212.211	12619
211.109	12705.1
210.007	12711.8
208.904	12750.2
207.802	12799.9
206.699	12829.2
205.595	12937.8
204.492	13023.7
203.389	12982.7
202.285	12921.4
201.181	12900.8
200.077	12977.6
198.972	13036.2
197.867	13070
196.763	13250.8
195.658	13214.3
194.552	13202.7
193.447	13297.5
192.341	13462.3
191.235	13581.8
190.129	13398.4
189.023	13416.2
187.916	13567.2
186.81	13700.2
185.703	13769.9
184.595	13717.6
183.488	14033.3
182.381	14220.2
181.273	14070.8
180.165	14106.5
179.057	14363.2
177.948	14531.9
176.839	14466
175.731	14920.9
174.622	14972.2
173.512	15246.5
172.403	15185.1
171.293	15558.4
170.183	15690.6
169.073	15455.6
167.963	15713.9
166.852	15807.7
165.742	15577.3
164.631	15266.1
163.519	15418.4
162.408	15255.8
161.296	15304.6
160.185	15276.9
159.073	15094.2
157.96	15158.7
156.848	15272.7
155.735	15114.7
154.622	15428.6
153.509	15598.6
152.396	15647.3
151.282	15695.9
150.169	15953.3
149.055	15990.7
147.941	16290.5
146.826	16433.3
145.712	16466
144.597	16837.4
143.482	17002.3
142.367	17496.8
141.251	17536
140.136	17848.6
139.02	18111.8
137.904	18298.8
136.788	18550.6
135.671	18874
134.554	19076.3
133.437	19417.4
132.32	19465.1
131.203	20208.7
130.085	20046
128.968	20330.7
127.85	20861.3
126.732	21016
125.613	21336.1
124.494	21544.4
123.376	22114.5
122.257	22456.6
121.137	22881.1
120.018	23205
118.898	23792.3
117.778	24763.3
116.658	24796.5
115.538	25273.7
114.417	25717.3
113.296	25821.7
112.176	26360.9
111.054	26656.9
109.933	26785.6
108.811	27161.6
107.689	27201
106.567	27126.7
105.445	26912.1
104.323	26661.9
103.2	26536.6
102.077	25966
100.954	25831.9
