4001.37	20.9905
4000.9	20.9905
4000.42	15.7407
3999.94	20.9846
3999.47	20.9816
3998.99	36.7125
3998.51	5.2439
3998.04	5.24316
3997.56	5.24241
3997.08	5.24167
3996.6	5.24092
3996.13	-5.24017
3995.65	20.9577
3995.17	20.9547
3994.7	-20.9517
3994.22	-5.23719
3993.74	31.4187
3993.26	31.4142
3992.79	31.4097
3992.31	26.1711
3991.83	20.9339
3991.35	-5.23272
3990.88	5.23198
3990.4	20.9249
3989.92	31.3829
3989.44	10.4595
3988.96	0
3988.49	0
3988.01	62.7301
3987.53	20.9071
3987.05	15.6781
3986.57	31.3517
3986.09	20.8981
3985.61	41.7903
3985.14	52.2305
3984.66	26.1115
3984.18	20.8862
3983.7	-10.4416
3983.22	26.1004
3982.74	-5.21933
3982.26	31.3115
3981.78	20.8714
3981.3	20.8684
3980.83	0
3980.35	10.4312
3979.87	15.6446
3979.39	15.6424
3978.91	10.4268
3978.43	-5.21264
3977.95	10.4238
3977.47	20.8446
3976.99	41.6833
3976.51	46.887
3976.03	15.6268
3975.55	31.2491
3975.07	-20.8298
3974.59	41.6536
3974.11	67.6775
3973.63	-20.8209
3973.15	41.6358
3972.67	-5.20373
3972.19	26.015
3971.71	0
3971.23	10.403
3970.74	-10.4015
3970.26	5.20003
3969.78	15.5979
3969.3	25.9927
3968.82	0
3968.34	5.19706
3967.86	5.19632
3967.38	15.5867
3966.9	15.5845
3966.42	0
3965.93	20.7734
3965.45	-5.19262
3964.97	-5.19188
3964.49	0
3964.01	20.7616
3963.53	15.569
3963.04	-5.18892
3962.56	10.3764
3962.08	10.3749
3961.6	46.6803
3961.12	20.7438
3960.63	20.7409
3960.15	5.18448
3959.67	10.3675
3959.19	0
3958.71	15.5468
3958.22	15.5446
3957.74	25.9039
3957.26	10.3601
3956.77	36.2551
3956.29	36.25
3955.81	5.17783
3955.33	20.7083
3954.84	10.3527
3954.36	5.17561
3953.88	-5.17487
3953.39	5.17413
3952.91	36.2138
3952.43	25.8633
3951.94	15.5158
3951.46	10.3424
3950.98	5.17044
3950.49	25.8485
3950.01	31.0138
3949.53	46.514
3949.04	0
3948.56	15.5003
3948.07	15.498
3947.59	-5.16528
3947.11	15.4936
3946.62	5.1638
3946.14	15.4892
3945.65	10.3247
3945.17	0
3944.69	-5.16085
3944.2	5.16012
3943.72	36.1157
3943.23	0
3942.75	25.7895
3942.26	25.7858
3941.78	5.15643
3941.29	0
3940.81	-10.3099
3940.32	5.15422
3939.84	5.15349
3939.35	-5.15275
3938.87	36.0641
3938.38	25.7564
3937.9	5.15054
3937.41	15.4494
3936.93	36.0435
3936.44	30.89
3935.95	15.4428
3935.47	25.7343
3934.98	15.4384
3934.5	20.5816
3934.01	20.5786
3933.52	0
3933.04	15.4296
3932.55	-25.7123
3932.07	30.8503
3931.58	-15.4229
3931.09	0
3930.61	41.1161
3930.12	10.2776
3929.63	20.5522
3929.15	15.4119
3928.66	15.4097
3928.17	-5.13584
3927.69	15.4053
3927.2	-15.4031
3926.71	5.13364
3926.23	25.6645
3925.74	30.793
3925.25	20.5257
3924.76	10.2614
3924.28	0
3923.79	10.2585
3923.3	15.3855
3922.81	20.5111
3922.33	41.0163
3921.84	-20.5052
3921.35	10.2511
3920.86	25.6242
3920.38	0
3919.89	10.2467
3919.4	35.8585
3918.91	40.9752
3918.42	5.12117
3917.94	30.7226
3917.45	0
3916.96	40.9518
3916.47	25.5912
3915.98	46.0576
3915.49	30.7007
3915	25.5802
3914.52	25.5766
3914.03	0
3913.54	40.9108
3913.05	15.3393
3912.56	25.5619
3912.07	20.4466
3911.58	15.3328
3911.09	5.11019
3910.6	25.5473
3910.11	-10.2175
3909.62	-5.108
3909.14	5.10726
3908.65	-10.2131
3908.16	5.1058
3907.67	10.2101
3907.18	10.2087
3906.69	25.518
3906.2	20.4115
3905.71	0
3905.22	-10.2028
3904.73	-20.4027
3904.24	15.2999
3903.75	10.1985
3903.26	5.0985
3902.77	-25.4888
3902.27	-10.1941
3901.78	25.4815
3901.29	5.09557
3900.8	15.2845
3900.31	0
3899.82	5.09339
3899.33	25.4633
3898.84	5.09193
3898.35	35.6384
3897.86	10.1809
3897.37	5.08974
3896.87	-5.08901
3896.38	20.3531
3895.89	-5.08755
3895.4	10.1736
3894.91	0
3894.42	5.08536
3893.93	15.2539
3893.43	25.4195
3892.94	-20.3327
3892.45	30.4947
3891.96	0
3891.47	15.243
3890.97	-15.2408
3890.48	-10.1591
3889.99	10.1576
3889.5	5.07808
3889.01	15.2321
3888.51	35.5364
3888.02	35.5313
3887.53	10.1503
3887.03	35.5211
3886.54	35.516
3886.05	15.219
3885.56	-10.1445
3885.06	20.2861
3884.57	5.0708
3884.08	40.5606
3883.58	30.4161
3883.09	0
3882.6	15.2037
3882.1	15.2015
3881.61	10.1329
3881.12	25.3286
3880.62	-5.06499
3880.13	5.06426
3879.64	40.5083
3879.14	25.314
3878.65	30.3725
3878.15	30.3681
3877.66	20.2425
3877.17	0
3876.67	15.1775
3876.18	20.2338
3875.68	25.2886
3875.19	40.456
3874.7	35.3939
3874.2	0
3873.71	15.1645
3873.21	25.2705
3872.72	0
3872.22	15.1579
3871.73	10.1038
3871.23	25.256
3870.74	5.05047
3870.24	5.04974
3869.75	10.098
3869.25	20.1932
3868.76	35.333
3868.26	5.04685
3867.77	20.1845
3867.27	0
3866.77	10.0893
3866.28	25.2197
3865.78	15.1297
3865.29	15.1275
3864.79	20.1671
3864.3	20.1642
3863.8	15.121
3863.3	15.1188
3862.81	0
3862.31	-15.1145
3861.81	-5.03743
3861.32	-10.0734
3860.82	20.1439
3860.33	-5.03526
3859.83	20.1381
3859.33	15.1014
3858.84	20.1324
3858.34	20.1295
3857.84	5.03164
3857.35	5.03092
3856.85	0
3856.35	10.059
3855.85	15.0863
3855.36	20.1121
3854.86	35.1912
3854.36	-10.0532
3853.86	15.0776
3853.37	35.176
3852.87	55.2686
3852.37	0
3851.87	25.1149
3851.38	0
3850.88	20.0861
3850.38	15.0624
3849.88	20.0803
3849.38	0
3848.89	5.01864
3848.39	30.1075
3847.89	5.0172
3847.39	15.0494
3846.89	20.063
3846.39	-5.01504
3845.9	50.1431
3845.4	10.0272
3844.9	5.01287
3844.4	15.0365
3843.9	25.0572
3843.4	10.0214
3842.9	5.00999
3842.4	0
3841.91	25.0427
3841.41	10.0157
3840.91	30.0426
3840.41	5.00639
3839.91	-5.00567
3839.41	10.0099
3838.91	15.0127
3838.41	10.007
3837.91	15.0084
3837.41	20.0083
3836.91	0
3836.41	-5.00063
3835.91	24.9995
3835.41	34.9943
3834.91	19.9939
3834.41	14.9932
3833.91	9.99406
3833.41	19.9852
3832.91	24.978
3832.41	24.9744
3831.91	0
3831.41	9.98687
3830.91	19.9709
3830.4	39.936
3829.9	-4.99128
3829.4	24.9528
3828.9	-9.97968
3828.4	14.9674
3827.9	-24.942
3827.4	9.97537
3826.9	29.9218
3826.4	0
3825.89	-9.97106
3825.39	24.9241
3824.89	0
3824.39	39.867
3823.89	9.96532
3823.39	0
3822.88	9.96245
3822.38	19.922
3821.88	9.95958
3821.38	-14.9372
3820.88	4.97835
3820.37	39.8211
3819.87	24.8846
3819.37	14.9286
3818.87	0
3818.36	19.8991
3817.86	24.8703
3817.36	29.84
3816.86	14.9179
3816.35	9.9438
3815.85	19.8847
3815.35	4.97047
3814.84	9.9395
3814.34	24.8452
3813.84	4.96832
3813.33	-9.9352
3812.83	14.9007
3812.33	-9.93234
3811.82	14.8964
3811.32	44.6826
3810.82	14.8921
3810.31	4.96331
3809.81	49.6259
3809.31	24.8094
3808.8	-9.92232
3808.3	4.96044
3807.79	0
3807.29	24.7951
3806.79	24.7915
3806.28	-4.95758
3805.78	-24.7843
3805.27	-14.8685
3804.77	19.8218
3804.26	34.6831
3803.76	24.77
3803.25	-4.9533
3802.75	4.95258
3802.24	4.95187
3801.74	24.7558
3801.23	-9.90087
3800.73	-9.89945
3800.22	-4.94901
3799.72	4.94829
3799.21	-4.94758
3798.71	44.5218
3798.2	0
3797.7	0
3797.19	24.7236
3796.69	39.5521
3796.18	4.9433
3795.67	24.7129
3795.17	-14.8256
3794.66	-9.88232
3794.16	24.7022
3793.65	4.93973
3793.14	14.8171
3792.64	-9.87661
3792.13	29.6256
3791.63	14.8106
3791.12	19.7447
3790.61	-9.87091
3790.11	19.739
3789.6	14.8021
3789.09	9.86663
3788.59	24.663
3788.08	29.5913
3787.57	44.3806
3787.06	-9.86093
3786.56	24.6488
3786.05	0
3785.54	29.57
3785.04	19.7105
3784.53	4.92691
3784.02	14.7786
3783.51	14.7765
3783.01	9.84954
3782.5	49.2406
3781.99	0
3781.48	-9.84528
3780.97	19.6877
3780.47	0
3779.96	29.523
3779.45	34.4386
3778.94	14.7572
3778.43	44.2653
3777.93	-9.83532
3777.42	4.91695
3776.91	4.91624
3776.4	14.7466
3775.89	39.3185
3775.38	9.82822
3774.87	44.2206
3774.36	44.2142
3773.86	14.7359
3773.35	29.4676
3772.84	0
3772.33	44.1886
3771.82	0
3771.31	24.5421
3770.8	24.5386
3770.29	29.442
3769.78	19.6252
3769.27	19.6224
3768.76	19.6195
3768.25	39.2334
3767.74	19.6138
3767.23	39.222
3766.72	14.7061
3766.21	24.5067
3765.7	29.4037
3765.19	19.5997
3764.68	-4.89921
3764.17	19.594
3763.66	-14.6934
3763.15	9.79416
3762.64	9.79274
3762.13	34.2696
3761.62	-19.5798
3761.11	-9.78849
3760.6	34.2548
3760.09	0
3759.57	24.4606
3759.06	24.4571
3758.55	-14.6721
3758.04	29.34
3757.53	34.225
3757.02	4.88858
3756.51	24.4394
3756	29.323
3755.48	19.5458
3754.97	14.6573
3754.46	24.4252
3753.95	34.1904
3753.44	29.3018
3752.92	4.88292
3752.41	4.88222
3751.9	29.2891
3751.39	14.6424
3750.88	14.6403
3750.36	-4.87939
3749.85	14.636
3749.34	0
3748.83	9.75454
3748.31	-24.3828
3747.8	24.3793
3747.29	0
3746.78	-14.6233
3746.26	0
3745.75	4.87303
3745.24	14.617
3744.72	19.4865
3744.21	-14.6127
3743.7	14.6106
3743.18	19.478
3742.67	19.4752
3742.16	4.86809
3741.64	-9.73477
3741.13	-29.2001
3740.61	14.5979
3740.1	0
3739.59	19.4583
3739.07	14.5916
3738.56	14.5895
3738.04	14.5874
3737.53	14.5852
3737.02	0
3736.5	4.86034
3735.99	-4.85963
3735.47	4.85893
3734.96	24.2911
3734.44	14.5726
3733.93	29.1409
3733.41	29.1367
3732.9	14.5662
3732.38	4.8547
3731.87	33.978
3731.35	0
3730.84	-4.85259
3730.32	9.70377
3729.81	9.70237
3729.29	14.5514
3728.78	33.9484
3728.26	29.0944
3727.75	-4.84837
3727.23	9.69533
3726.71	4.84696
3726.2	58.1551
3725.68	29.0733
3725.17	4.84485
3724.65	19.3766
3724.13	0
3723.62	-9.68549
3723.1	4.84204
3722.59	33.8894
3722.07	4.84064
3721.55	0
3721.04	24.1962
3720.52	14.5156
3720	9.67565
3719.49	14.5114
3718.97	4.83642
3718.45	29.0143
3717.93	0
3717.42	19.3373
3716.9	33.8353
3716.38	19.3317
3715.87	4.83221
3715.35	9.66302
3714.83	14.4924
3714.31	14.4903
3713.8	19.3176
3713.28	19.3148
3712.76	9.65601
3712.24	-9.6546
3711.72	14.4798
3711.21	48.259
3710.69	53.0772
3710.17	-28.947
3709.65	24.119
3709.13	19.2924
3708.61	9.64479
3708.1	24.1085
3707.58	38.568
3707.06	9.64059
3706.54	14.4588
3706.02	4.81889
3705.5	0
3704.98	38.54
3704.46	43.3511
3703.95	24.0805
3703.43	9.63079
3702.91	28.8882
3702.39	4.81399
3701.87	19.2532
3701.35	-14.4378
3700.83	43.3071
3700.31	52.9232
3699.79	-9.62099
3699.27	4.8098
3698.75	4.8091
3698.23	19.2336
3697.71	9.6154
3697.19	9.614
3696.67	28.8378
3696.15	-9.61121
3695.63	24.0245
3695.11	-14.4126
3694.59	9.60702
3694.07	28.8169
3693.55	24.0106
3693.03	14.4042
3692.51	24.0036
3691.99	14.4
3691.46	28.7959
3690.94	14.3959
3690.42	0
3689.9	0
3689.38	9.59305
3688.86	9.59166
3688.34	33.5659
3687.82	38.3555
3687.29	33.5561
3686.77	14.3791
3686.25	4.79234
3685.73	14.3749
3685.21	19.1638
3684.69	47.9025
3684.16	14.3687
3683.64	19.1554
3683.12	14.3645
3682.6	23.9373
3682.08	19.1471
3681.55	4.78607
3681.03	14.3561
3680.51	23.9234
3679.99	14.3519
3679.46	14.3498
3678.94	14.3478
3678.42	9.56378
3677.89	33.4683
3677.37	-4.7805
3676.85	0
3676.33	23.8955
3675.8	47.7841
3675.28	4.77771
3674.76	28.6621
3674.23	19.1053
3673.71	47.7562
3673.19	19.0997
3672.66	23.8712
3672.14	28.6412
3671.61	23.8642
3671.09	38.1772
3670.57	42.9431
3670.04	33.3953
3669.52	-4.77006
3668.99	28.6162
3668.47	42.9181
3667.95	-28.6079
3667.42	0
3666.9	14.2998
3666.37	28.5954
3665.85	28.5912
3665.32	9.52901
3664.8	28.5829
3664.27	4.76312
3663.75	0
3663.22	19.0469
3662.7	42.8493
3662.17	42.8431
3661.65	4.75965
3661.12	9.5179
3660.6	-4.75826
3660.07	14.2727
3659.55	38.055
3659.02	14.2685
3658.49	9.51097
3657.97	19.0192
3657.44	23.7705
3656.92	47.534
3656.39	42.7744
3655.86	4.75202
3655.34	-4.75132
3654.81	28.5038
3654.29	28.4996
3653.76	47.4925
3653.23	18.9942
3652.71	33.235
3652.18	18.9887
3651.65	9.49295
3651.13	4.74578
3650.6	23.7255
3650.07	37.9552
3649.55	28.4622
3649.02	14.229
3648.49	23.7116
3647.96	14.2249
3647.44	23.7047
3646.91	14.2207
3646.38	23.6978
3645.85	28.4332
3645.33	52.1199
3644.8	28.4249
3644.27	18.9471
3643.74	33.1527
3643.22	18.9416
3642.69	18.9389
3642.16	14.2021
3641.63	4.73333
3641.1	4.73264
3640.57	37.8556
3640.05	23.6563
3639.52	18.9223
3638.99	23.6494
3638.46	14.1876
3637.93	37.828
3637.4	28.3668
3636.87	14.1813
3636.35	18.9057
3635.82	37.8059
3635.29	14.1751
3634.76	23.6218
3634.23	4.72366
3633.7	56.6757
3633.17	4.72228
3632.64	23.608
3632.11	28.3254
3631.58	9.44043
3631.05	42.4757
3630.52	18.8753
3629.99	33.027
3629.46	33.0222
3628.93	14.1503
3628.4	23.5804
3627.87	0
3627.34	9.4294
3626.81	18.856
3626.28	28.2799
3625.75	37.7011
3625.22	28.2717
3624.69	-18.845
3624.16	4.71057
3623.63	37.679
3623.1	28.2551
3622.57	14.1255
3622.03	37.6625
3621.5	32.9499
3620.97	47.0643
3620.44	14.1172
3619.91	18.8202
3619.38	18.8175
3618.85	28.2221
3618.32	23.515
3617.78	14.1069
3617.25	28.2097
3616.72	9.40186
3616.19	37.6019
3615.66	23.4978
3615.12	18.7955
3614.59	42.2836
3614.06	9.39499
3613.53	32.8776
3613	4.69612
3612.46	23.4772
3611.93	42.2527
3611.4	28.1643
3610.86	18.7735
3610.33	0
3609.8	9.384
3609.27	32.8392
3608.73	23.4531
3608.2	9.37988
3607.67	0
3607.13	32.82
3606.6	14.0636
3606.07	28.1232
3605.53	9.37301
3605	37.4866
3604.47	42.1662
3603.93	42.16
3603.4	0
3602.87	23.4154
3602.33	4.68239
3601.8	4.68171
3601.26	9.36204
3600.73	9.36067
3600.2	37.4372
3599.66	14.0369
3599.13	18.7131
3598.59	4.67759
3598.06	-4.67691
3597.52	56.1147
3596.99	23.3777
3596.45	18.6994
3595.92	0
3595.38	9.34697
3594.85	42.0552
3594.31	-23.3606
3593.78	60.7286
3593.24	42.0367
3592.71	42.0305
3592.17	14.0081
3591.64	23.3435
3591.1	23.34
3590.57	42.0059
3590.03	37.3331
3589.49	79.3212
3588.96	23.3264
3588.42	37.3167
3587.89	37.3112
3587.35	-9.32644
3586.81	51.2879
3586.28	9.32371
3585.74	46.6117
3585.2	13.9815
3584.67	37.2784
3584.13	41.9321
3583.6	37.2675
3583.06	18.631
3582.52	-18.6283
3581.98	27.9383
3581.45	13.9671
3580.91	41.8952
3580.37	13.963
3579.84	32.5756
3579.3	23.2649
3578.76	32.566
3578.22	37.2129
3577.69	46.5093
3577.15	4.65024
3576.61	18.5982
3576.07	9.29776
3575.54	13.9446
3575	46.4752
3574.46	41.8215
3573.92	32.5231
3573.38	32.5183
3572.85	37.1583
3572.31	0
3571.77	13.9303
3571.23	0
3570.69	-4.64206
3570.15	18.5655
3569.61	60.3291
3569.08	32.4801
3568.54	27.836
3568	18.5546
3567.46	46.3798
3566.92	13.9119
3566.38	51.0027
3565.84	27.8156
3565.3	27.8115
3564.76	50.9803
3564.22	32.4372
3563.68	37.0657
3563.14	23.1626
3562.6	18.5274
3562.06	74.0987
3561.52	41.6744
3560.98	18.5192
3560.44	32.4039
3559.9	41.656
3559.36	4.62777
3558.82	64.7792
3558.28	37.0113
3557.74	27.7544
3557.2	13.8751
3556.66	36.995
3556.12	60.108
3555.58	32.3611
3555.04	18.4893
3554.5	18.4866
3553.96	32.3468
3553.42	41.5827
3552.87	32.3373
3552.33	36.9515
3551.79	50.8008
3551.25	18.4703
3550.71	27.7014
3550.17	13.8487
3549.63	18.4622
3549.08	32.304
3548.54	41.5277
3548	23.0675
3547.46	41.5155
3546.92	73.7944
3546.37	50.7262
3545.83	13.8324
3545.29	36.8809
3544.75	64.5321
3544.21	55.3051
3543.66	4.60808
3543.12	27.6444
3542.58	32.2471
3542.03	23.0302
3541.49	50.6591
3540.95	18.4188
3540.41	36.8321
3539.86	18.4134
3539.32	46.0266
3538.78	41.4179
3538.23	46.0131
3537.69	50.6069
3537.15	22.9998
3536.6	27.5957
3536.06	36.7888
3535.52	18.3917
3534.97	45.9725
3534.43	22.9829
3533.88	41.363
3533.34	22.9761
3532.8	36.7563
3532.25	41.3448
3531.71	36.7455
3531.16	32.1476
3530.62	50.5102
3530.07	32.1381
3529.53	41.3144
3528.98	32.1287
3528.44	27.5348
3527.89	32.1192
3527.35	41.29
3526.8	36.6968
3526.26	27.5186
3525.71	27.5145
3525.17	36.6806
3524.62	45.844
3524.08	18.3349
3523.53	13.7492
3522.99	32.0766
3522.44	22.9085
3521.9	13.7431
3521.35	64.1249
3520.8	50.3765
3520.26	18.316
3519.71	13.735
3519.17	50.3542
3518.62	59.5007
3518.07	45.763
3517.53	-9.15126
3516.98	22.8748
3516.43	13.7228
3515.89	27.4416
3515.34	36.5835
3514.79	27.4336
3514.25	10665.5
3513.7	6952.36
3513.15	4670.78
3512.61	3906.98
3512.06	397.493
3511.51	41.114
3510.96	22.8377
3510.42	36.535
3509.87	18.2648
3509.32	36.5242
3508.77	31.9539
3508.23	59.3343
3507.68	31.9445
3507.13	54.754
3506.58	41.0594
3506.04	31.9304
3505.49	27.3649
3504.94	27.3608
3504.39	31.9163
3503.84	45.5879
3503.29	18.2325
3502.75	41.017
3502.2	31.8974
3501.65	63.7855
3501.1	59.2206
3500.55	31.8833
3500	50.095
3499.45	22.7671
3498.9	50.0802
3498.35	40.9686
3497.8	36.4112
3497.26	45.5073
3496.71	27.3003
3496.16	22.7469
3495.61	36.3897
3495.06	45.4804
3494.51	36.379
3493.96	40.9203
3493.41	45.4603
3492.86	31.8175
3492.31	31.8128
3491.76	36.3521
3491.21	36.3467
3490.66	45.4267
3490.11	27.252
3489.56	40.872
3489	45.4066
3488.45	40.8599
3487.9	49.9325
3487.35	45.3865
3486.8	58.9937
3486.25	13.6119
3485.7	49.903
3485.15	9.07193
3484.6	36.2824
3484.05	4.53463
3483.49	31.7377
3482.94	13.5999
3482.39	27.1957
3481.84	22.6597
3481.29	22.6564
3480.74	27.1836
3480.18	54.3593
3479.63	58.8805
3479.08	40.7574
3478.53	9.05586
3477.98	58.8544
3477.42	31.6861
3476.87	4.52592
3476.32	22.6263
3475.77	36.1967
3475.21	18.0957
3474.66	4.52325
3474.11	45.2258
3473.56	31.6534
3473	18.085
3472.45	27.1234
3471.9	22.5995
3471.34	40.6731
3470.79	49.7042
3470.24	36.1432
3469.68	58.724
3469.13	63.2319
3468.58	27.0954
3468.02	36.1218
3467.47	58.6892
3466.91	27.0833
3466.36	13.5397
3465.81	18.0502
3465.25	49.6307
3464.7	27.0673
3464.14	49.6161
3463.59	18.0395
3463.04	63.129
3462.48	31.5598
3461.93	40.5709
3461.37	22.5361
3460.82	31.5458
3460.26	40.5529
3459.71	45.0521
3459.15	22.5227
3458.6	54.0466
3458.04	13.5096
3457.49	13.5076
3456.93	31.5132
3456.38	31.5085
3455.82	27.0033
3455.27	40.4989
3454.71	44.9921
3454.15	49.484
3453.6	35.983
3453.04	35.9777
3452.49	53.9586
3451.93	26.9753
3451.37	49.4474
3450.82	31.4619
3450.26	44.9389
3449.7	40.439
3449.15	26.9553
3448.59	35.9351
3448.04	40.421
3447.48	13.4717
3446.92	26.9394
3446.36	0
3445.81	17.9542
3445.25	35.9032
3444.69	35.8979
3444.14	31.406
3443.58	31.4013
3443.02	49.3376
3442.46	44.8457
3441.91	40.3552
3441.35	8.96649
3440.79	8.96516
3440.23	22.4096
3439.68	53.775
3439.12	22.4029
3438.56	71.6787
3438	62.7096
3437.44	13.4358
3436.88	31.3455
3436.33	31.3408
3435.77	35.8128
3435.21	44.7594
3434.65	35.8022
3434.09	49.2207
3433.53	35.7916
3432.97	44.7328
3432.42	35.7809
3431.86	35.7756
3431.3	40.2416
3430.74	53.6475
3430.18	40.2297
3429.62	40.2237
3429.06	17.8746
3428.5	58.0837
3427.94	44.6731
3427.38	26.7999
3426.82	40.1939
3426.26	44.6532
3425.7	26.788
3425.14	40.176
3424.58	53.56
3424.02	53.5521
3423.46	62.4681
3422.9	40.1521
3422.34	35.6855
3421.78	53.5203
3421.22	35.6749
3420.66	35.6696
3420.1	40.1223
3419.54	62.4033
3418.98	44.5671
3418.41	44.5605
3417.85	66.8309
3417.29	35.6378
3416.73	31.1785
3416.17	13.3602
3415.61	40.0747
3415.05	44.5208
3414.49	62.3199
3413.92	13.3523
3413.36	26.7006
3412.8	31.1461
3412.24	13.3463
3411.68	75.618
3411.11	53.3695
3410.55	62.2551
3409.99	62.2459
3409.43	44.4547
3408.86	48.8929
3408.3	44.4415
3407.74	17.774
3407.18	26.657
3406.61	44.4217
3406.05	53.2981
3405.49	26.6451
3404.92	35.5215
3404.36	71.0325
3403.8	66.5831
3403.24	44.3821
3402.67	8.8751
3402.11	53.2427
3401.54	62.1072
3400.98	31.049
3400.42	53.2189
3399.85	39.9083
3399.29	39.9023
3398.73	57.6281
3398.16	53.1873
3397.6	57.611
3397.03	62.0334
3396.47	39.8727
3395.9	44.2964
3395.34	44.2898
3394.78	35.4266
3394.21	22.1383
3393.65	57.551
3393.08	57.5425
3392.52	61.9596
3391.95	44.2503
3391.39	30.9706
3390.82	26.5423
3390.26	79.6149
3389.69	48.6463
3389.13	22.1087
3388.56	88.4215
3387.99	44.2042
3387.43	30.9383
3386.86	66.2865
3386.3	17.6738
3385.73	48.5957
3385.17	75.0912
3384.6	48.5812
3384.03	13.2474
3383.47	70.6425
3382.9	61.803
3382.33	79.4492
3381.77	61.7846
3381.2	79.4255
3380.63	39.7068
3380.07	66.1682
3379.5	52.9267
3378.93	35.2792
3378.37	52.9109
3377.8	48.4944
3377.23	61.711
3376.67	79.3309
3376.1	52.8794
3375.53	57.2775
3374.96	57.2689
3374.4	70.4743
3373.83	52.8479
3373.26	66.05
3372.69	30.8187
3372.12	57.2263
3371.56	44.0137
3370.99	52.8085
3370.42	44.0005
3369.85	52.7928
3369.28	35.1899
3368.72	52.777
3368.15	52.7692
3367.58	79.142
3367.01	61.5457
3366.44	74.7229
3365.87	70.3169
3365.3	39.5474
3364.73	61.509
3364.17	65.8927
3363.6	52.7063
3363.03	48.3069
3362.46	35.127
3361.89	57.0729
3361.32	39.5061
3360.75	39.5002
3360.18	57.0474
3359.61	39.4884
3359.04	57.0304
3358.47	70.1807
3357.9	48.2421
3357.33	57.0048
3356.76	35.0747
3356.19	61.3715
3355.62	30.6812
3355.05	65.7356
3354.48	52.5806
3353.91	48.1917
3353.34	65.7061
3352.77	52.5571
3352.19	100.719
3351.62	74.4336
3351.05	91.9337
3350.48	21.8857
3349.91	91.9062
3349.34	65.6375
3348.77	39.3766
3348.2	34.9962
3347.62	87.4775
3347.05	52.4787
3346.48	52.4708
3345.91	83.0664
3345.34	56.8264
3344.76	74.3004
3344.19	65.5494
3343.62	65.5396
3343.05	52.4238
3342.48	52.416
3341.9	56.7755
3341.33	56.767
3340.76	43.6604
3340.19	61.1155
3339.61	56.7416
3339.04	39.2768
3338.47	82.9052
3337.89	61.0789
3337.32	74.1562
3336.75	61.0607
3336.17	78.4949
3335.6	69.7628
3335.03	74.1119
3334.45	61.0242
3333.88	78.448
3333.31	52.2908
3332.73	69.7107
3332.16	87.1253
3331.59	43.5561
3331.01	39.1947
3330.44	52.2517
3329.86	82.7196
3329.29	65.2952
3328.71	73.9901
3328.14	56.5722
3327.56	78.319
3326.99	65.2561
3326.42	60.8966
3325.84	104.379
3325.27	65.2268
3324.69	56.5215
3324.12	60.8602
3323.54	69.5441
3322.97	91.2629
3322.39	78.2137
3321.81	104.269
3321.24	91.222
3320.66	56.4623
3320.09	56.4539
3319.51	86.8391
3318.94	73.8022
3318.36	91.1538
3317.78	52.0801
3317.21	47.7329
3316.63	60.7419
3316.06	86.7611
3315.48	39.0367
3314.9	73.7249
3314.33	65.0416
3313.75	73.7028
3313.17	78.0266
3312.6	60.6783
3312.02	82.3368
3311.44	77.9916
3310.86	86.6443
3310.29	90.9629
3309.71	60.6329
3309.13	34.6422
3308.56	103.911
3307.98	82.2505
3307.4	103.88
3306.82	77.8982
3306.25	60.5784
3305.67	86.5276
3305.09	51.9088
3304.51	51.901
3303.93	86.4887
3303.36	51.8855
3302.78	60.524
3302.2	60.5149
3301.62	77.7932
3301.04	64.818
3300.46	64.8082
3299.88	47.5189
3299.31	82.0658
3298.73	51.8233
3298.15	69.0874
3297.57	69.077
3296.99	60.4333
3296.41	60.4243
3295.83	69.0459
3295.25	86.2945
3294.67	90.5956
3294.09	99.2089
3293.51	73.3173
3292.93	86.2428
3292.35	90.5413
3291.77	60.3518
3291.19	64.653
3290.61	90.5006
3290.03	107.723
3289.45	86.1652
3288.87	86.1523
3288.29	77.5254
3287.71	55.9822
3287.13	90.4192
3286.55	64.5754
3285.97	116.218
3285.39	73.1635
3284.81	90.3649
3284.23	90.3514
3283.64	77.4324
3283.06	55.915
3282.48	90.3107
3281.9	85.9973
3281.32	90.2836
3280.74	51.5829
3280.16	90.2565
3279.57	42.9728
3278.99	90.2294
3278.41	85.9199
3277.83	85.907
3277.25	103.073
3276.66	77.2931
3276.08	98.7485
3275.5	51.5132
3274.92	103.011
3274.33	102.996
3273.75	85.8167
3273.17	90.094
3272.59	77.2118
3272	60.0446
3271.42	55.7474
3270.84	68.6018
3270.25	68.5915
3269.67	68.5812
3269.09	85.7137
3268.5	77.1307
3267.92	89.9723
3267.34	89.9588
3266.75	111.361
3266.17	81.3668
3265.59	77.0728
3265	111.311
3264.42	51.3664
3263.83	106.997
3263.25	102.702
3262.67	119.801
3262.08	77.0033
3261.5	89.8237
3260.91	102.64
3260.33	59.8645
3259.74	94.0586
3259.16	81.2202
3258.57	94.0303
3257.99	102.563
3257.4	89.7292
3256.82	85.4435
3256.23	68.3445
3255.65	93.9596
3255.06	64.0537
3254.48	76.8529
3253.89	93.9172
3253.3	81.0981
3252.72	89.6213
3252.13	72.5397
3251.55	81.0615
3250.96	85.3151
3250.37	98.0976
3249.79	132.199
3249.2	119.387
3248.62	102.317
3248.03	76.7259
3247.44	93.7619
3246.86	110.793
3246.27	72.4306
3245.68	110.76
3245.09	59.6308
3244.51	102.209
3243.92	46.8386
3243.33	68.1187
3242.75	97.9059
3242.16	106.403
3241.57	80.8544
3240.98	72.3325
3240.4	72.3216
3239.81	85.0715
3239.22	123.335
3238.63	97.8027
3238.04	106.291
3237.46	106.275
3236.87	93.5082
3236.28	106.243
3235.69	110.476
3235.1	72.2237
3234.51	110.443
3233.93	67.9548
3233.34	93.4237
3232.75	84.9179
3232.16	110.377
3231.57	101.871
3230.98	106.099
3230.39	93.3534
3229.8	97.582
3229.21	72.1149
3228.62	93.3112
3228.04	97.5379
3227.45	106.003
3226.86	110.227
3226.27	89.0161
3225.68	72.0498
3225.09	80.5141
3224.5	80.5019
3223.91	88.9624
3223.32	101.656
3222.73	105.876
3222.14	71.9846
3221.54	97.3763
3220.95	55.0305
3220.36	97.3469
3219.77	97.3322
3219.18	97.3175
3218.59	105.764
3218	76.1386
3217.41	105.732
3216.82	84.5729
3216.23	80.3321
3215.63	105.684
3215.04	88.7614
3214.45	105.652
3213.86	97.1855
3213.27	118.295
3212.68	101.38
3212.08	88.6944
3211.49	76.0123
3210.9	97.1122
3210.31	75.9894
3209.72	122.409
3209.12	84.4072
3208.53	97.0536
3207.94	97.0389
3207.35	113.898
3206.75	139.188
3206.16	92.7778
3205.57	113.847
3204.97	92.7498
3204.38	92.7358
3203.79	105.366
3203.2	105.35
3202.6	96.9072
3202.01	126.382
3201.41	109.514
3200.82	122.132
3200.23	80.0054
3199.63	105.254
3199.04	75.7717
3198.45	75.7603
3197.85	96.7901
3197.26	100.983
3196.66	75.7259
3196.07	92.5399
3195.47	126.172
3194.88	113.537
3194.29	109.316
3193.69	147.134
3193.1	130.299
3192.5	117.671
3191.91	96.644
3191.31	84.0256
3190.72	126.019
3190.12	121.8
3189.53	117.582
3188.93	79.776
3188.33	121.745
3187.74	92.3443
3187.14	109.118
3186.55	67.1392
3185.95	104.889
3185.36	121.653
3184.76	130.023
3184.16	100.648
3183.57	100.633
3182.97	159.311
3182.37	108.986
3181.78	159.263
3181.18	121.524
3180.58	87.987
3179.99	100.541
3179.39	138.223
3178.79	108.887
3178.2	100.496
3177.6	117.227
3177	113.024
3176.41	83.7085
3175.81	104.62
3175.21	108.788
3174.61	104.588
3174.02	104.572
3173.42	133.832
3172.82	104.541
3172.22	100.344
3171.62	117.05
3171.03	125.392
3170.43	91.94
3169.83	104.462
3169.23	121.157
3168.63	112.784
3168.03	137.827
3167.43	108.574
3166.84	137.785
3166.24	116.891
3165.64	137.743
3165.04	95.9882
3164.44	137.701
3163.84	137.681
3163.24	129.317
3162.64	129.297
3162.04	150.129
3161.44	141.767
3160.84	154.252
3160.24	137.555
3159.64	158.373
3159.04	129.18
3158.44	141.659
3157.84	129.14
3157.24	120.79
3156.64	124.937
3156.04	133.246
3155.44	120.736
3154.84	158.181
3154.24	129.023
3153.64	124.842
3153.04	166.431
3152.44	149.765
3151.84	166.38
3151.24	153.879
3150.64	137.222
3150.03	170.462
3149.43	124.71
3148.83	153.785
3148.23	124.672
3147.63	166.204
3147.03	157.87
3146.42	132.923
3145.82	166.128
3145.22	157.798
3144.62	161.926
3144.02	161.901
3143.41	145.274
3142.81	161.852
3142.21	178.425
3141.61	124.464
3141	132.741
3140.4	136.869
3139.8	153.436
3139.19	174.144
3138.59	182.409
3137.99	153.366
3137.39	169.92
3136.78	128.457
3136.18	169.869
3135.58	149.13
3134.97	120.114
3134.37	132.52
3133.76	128.359
3133.16	111.78
3132.56	144.878
3131.95	136.578
3131.35	173.8
3130.74	169.637
3130.14	153.063
3129.54	99.2693
3128.93	140.61
3128.33	157.129
3127.72	157.105
3127.12	124.011
3126.51	132.259
3125.91	128.106
3125.3	132.218
3124.7	185.904
3124.09	169.353
3123.49	156.938
3122.88	132.138
3122.27	140.375
3121.67	132.098
3121.06	115.568
3120.46	94.9165
3119.85	127.912
3119.25	156.771
3118.64	144.372
3118.03	173.22
3117.43	164.947
3116.82	148.43
3116.21	181.386
3115.61	144.263
3115	152.483
3114.39	206.027
3113.79	144.197
3113.18	168.891
3112.57	152.39
3111.97	168.839
3111.36	160.579
3110.75	160.554
3110.15	160.53
3109.54	156.39
3108.93	164.596
3108.32	168.685
3107.71	164.546
3107.11	172.747
3106.5	168.608
3105.89	131.577
3105.28	139.779
3104.67	172.642
3104.07	201.385
3103.46	172.589
3102.85	201.324
3102.24	180.753
3101.63	164.296
3101.02	221.765
3100.41	168.352
3099.81	238.12
3099.2	205.245
3098.59	213.422
3097.98	184.664
3097.37	201.048
3096.76	225.632
3096.15	180.478
3095.54	213.259
3094.93	196.825
3094.32	204.995
3093.71	200.864
3093.1	217.228
3092.49	200.803
3091.88	233.552
3091.27	233.516
3090.66	213
3090.05	208.872
3089.44	208.84
3088.83	192.431
3088.22	208.776
3087.61	184.186
3087	220.99
3086.39	204.589
3085.77	212.74
3085.16	249.523
3084.55	249.485
3083.94	196.286
3083.33	212.611
3082.72	212.578
3082.11	220.721
3081.49	212.513
3080.88	196.136
3080.27	220.62
3079.66	232.841
3079.05	224.637
3078.43	220.519
3077.82	232.734
3077.21	204.122
3076.6	261.236
3075.98	195.897
3075.37	224.431
3074.76	261.117
3074.15	256.997
3073.53	236.565
3072.92	260.997
3072.31	260.957
3071.69	248.687
3071.08	293.487
3070.47	264.913
3069.85	256.723
3069.24	330.022
3068.63	297.382
3068.01	346.214
3067.4	333.944
3066.79	358.324
3066.17	293.129
3065.56	358.214
3064.94	423.28
3064.33	390.66
3063.71	358.05
3063.1	333.587
3062.48	455.561
3061.87	398.555
3061.26	414.76
3060.64	483.812
3060.03	483.738
3059.41	512.115
3058.79	564.866
3058.18	491.643
3057.56	520.006
3056.95	629.598
3056.33	592.95
3055.72	649.709
3055.1	572.469
3054.49	669.808
3053.87	698.118
3053.25	604.672
3052.64	645.156
3052.02	665.342
3051.41	604.395
3050.79	616.47
3050.17	673.147
3049.56	571.682
3048.94	522.949
3048.32	530.975
3047.71	490.368
3047.09	482.189
3046.47	542.886
3045.85	506.346
3045.24	490.068
3044.62	404.953
3044	514.212
3043.38	408.877
3042.77	530.245
3042.15	441.129
3041.53	424.876
3040.91	404.581
3040.3	408.565
3039.68	420.636
3039.06	396.308
3038.44	420.507
3037.82	392.144
3037.2	384
3036.59	339.485
3035.97	323.269
3035.35	339.381
3034.73	359.527
3034.11	306.965
3033.49	310.956
3032.87	258.418
3032.25	331.047
3031.63	298.704
3031.01	278.479
3030.39	298.613
3029.77	294.532
3029.15	294.487
3028.54	221.84
3027.92	254.069
3027.3	245.965
3026.68	241.896
3026.05	286.2
3025.43	253.913
3024.81	298.201
3024.19	322.33
3023.57	281.996
3022.95	265.841
3022.33	249.691
3021.71	269.786
3021.09	269.745
3020.47	229.449
3019.85	257.588
3019.23	261.573
3018.61	221.297
3017.98	297.699
3017.36	293.631
3016.74	281.521
3016.12	233.225
3015.5	309.578
3014.88	257.272
3014.25	269.291
3013.63	289.343
3013.01	265.19
3012.39	261.132
3011.76	269.126
3011.14	293.182
3010.52	277.074
3009.9	273.017
3009.27	309.104
3008.65	276.947
3008.03	300.983
3007.4	260.812
3006.78	300.891
3006.16	240.676
3005.54	220.586
3004.91	316.793
3004.29	272.64
3003.66	268.59
3003.04	304.622
3002.42	256.485
3001.79	268.466
3001.17	224.355
3000.54	288.413
2999.92	244.312
2999.3	284.32
2998.67	340.33
2998.05	256.209
2997.42	256.17
2996.8	300.153
2996.17	252.09
2995.55	240.049
2994.92	272.014
2994.3	247.974
2993.67	251.935
2993.05	303.875
2992.42	295.833
2991.8	303.782
2991.17	255.777
2990.55	275.717
2989.92	307.637
2989.29	315.579
2988.67	295.561
2988.04	235.614
2987.42	287.484
2986.79	291.432
2986.16	295.379
2985.54	303.316
2984.91	323.221
2984.28	287.264
2983.66	319.133
2983.03	315.095
2982.4	291.119
2981.78	291.074
2981.15	306.976
2980.52	294.971
2979.9	259.056
2979.27	330.744
2978.64	290.851
2978.01	266.904
2977.39	302.71
2976.76	286.734
2976.13	306.599
2975.5	306.552
2974.87	294.563
2974.25	298.498
2973.62	338.246
2972.99	330.236
2972.36	294.382
2971.73	302.292
2971.1	318.153
2970.47	326.057
2969.85	306.128
2969.22	349.807
2968.59	325.906
2967.96	313.935
2967.33	290.047
2966.7	282.057
2966.07	317.762
2965.44	325.656
2964.81	345.46
2964.18	329.526
2963.55	341.384
2962.92	341.331
2962.29	293.658
2961.66	321.387
2961.03	349.108
2960.4	376.82
2959.77	329.171
2959.14	317.224
2958.51	313.211
2957.88	305.234
2957.25	336.895
2956.62	344.769
2955.99	332.829
2955.36	352.586
2954.73	305
2954.09	372.28
2953.46	340.544
2952.83	376.124
2952.2	336.48
2951.57	368.092
2950.94	340.334
2950.3	344.239
2949.67	320.449
2949.04	355.999
2948.41	371.764
2947.78	355.889
2947.14	343.973
2946.51	328.108
2945.88	367.582
2945.25	383.333
2944.61	351.664
2943.98	387.166
2943.35	355.506
2942.71	383.097
2942.08	394.885
2941.45	379.031
2940.82	406.606
2940.18	406.543
2939.55	406.48
2938.91	406.418
2938.28	378.739
2937.65	402.348
2937.01	378.622
2936.38	354.903
2935.75	350.906
2935.11	378.447
2934.48	433.57
2933.84	386.212
2933.21	323.107
2932.57	370.334
2931.94	350.581
2931.3	342.65
2930.67	358.349
2930.03	307.109
2929.4	389.732
2928.76	401.48
2928.13	393.547
2927.49	397.421
2926.86	424.9
2926.22	413.033
2925.59	401.17
2924.95	373.581
2924.32	373.524
2923.68	404.916
2923.04	400.923
2922.41	412.651
2921.77	349.717
2921.13	428.239
2920.5	416.388
2919.86	353.482
2919.23	380.917
2918.59	376.931
2917.95	384.725
2917.31	384.665
2916.68	431.7
2916.04	372.775
2915.4	411.95
2914.77	400.119
2914.13	356.913
2913.49	360.78
2912.85	403.854
2912.22	348.907
2911.58	411.569
2910.94	427.182
2910.3	399.686
2909.66	391.789
2909.03	407.397
2908.39	423.001
2907.75	426.852
2907.11	399.377
2906.47	387.571
2905.83	371.854
2905.19	391.365
2904.56	453.913
2903.92	414.719
2903.28	488.979
2902.64	398.945
2902	430.169
2901.36	383.182
2900.72	473.039
2900.08	437.787
2899.44	465.077
2898.8	355.592
2898.16	425.863
2897.52	437.516
2896.88	410.108
2896.24	421.76
2895.6	394.363
2894.96	390.398
2894.32	468.405
2893.68	405.888
2893.04	405.825
2892.4	409.664
2891.76	452.511
2891.12	448.541
2890.48	421.173
2889.83	444.503
2889.19	526.303
2888.55	420.977
2887.91	475.475
2887.27	483.195
2886.63	420.782
2885.98	381.762
2885.34	451.811
2884.7	471.213
2884.06	475.034
2883.42	412.67
2882.77	490.456
2882.13	490.38
2881.49	474.739
2880.85	431.868
2880.2	424.021
2879.56	505.635
2878.92	439.445
2878.28	447.154
2877.63	447.084
2876.99	447.015
2876.35	478.038
2875.7	427.447
2875.06	501.201
2874.42	462.277
2873.77	454.437
2873.13	458.25
2872.48	454.296
2871.84	469.755
2871.2	434.747
2870.55	423.037
2869.91	450.134
2869.26	461.704
2868.62	531.459
2867.98	484.833
2867.33	531.294
2866.69	430.398
2866.04	492.361
2865.4	519.419
2864.75	480.581
2864.11	499.882
2863.46	515.303
2862.82	608.195
2862.17	546.129
2861.52	449.228
2860.88	456.902
2860.23	499.417
2859.59	472.244
2858.94	495.392
2858.29	495.315
2857.65	452.679
2857	506.767
2856.36	483.481
2855.71	560.751
2855.06	514.264
2854.42	529.649
2853.77	514.105
2853.12	521.754
2852.48	529.402
2851.83	517.729
2851.18	533.101
2850.53	544.605
2849.89	536.797
2849.24	501.962
2848.59	540.491
2847.94	517.247
2847.3	494.01
2846.65	536.38
2846	536.297
2845.35	520.783
2844.7	536.13
2844.06	524.478
2843.41	528.252
2842.76	559.012
2842.11	535.797
2841.46	558.839
2840.81	527.924
2840.16	527.842
2839.52	562.43
2838.87	566.195
2838.22	558.405
2837.57	554.467
2836.92	562.081
2836.27	519.651
2835.62	596.544
2834.97	523.338
2834.32	557.884
2833.67	542.41
2833.02	588.481
2832.37	546.087
2831.72	484.481
2831.07	549.761
2830.42	584.271
2829.77	549.59
2829.12	572.561
2828.47	564.788
2827.82	549.334
2827.17	603.021
2826.51	541.483
2825.86	564.437
2825.21	556.671
2824.56	614.162
2823.91	583.363
2823.26	537.224
2822.61	540.977
2821.96	548.565
2821.3	552.316
2820.65	628.928
2820	613.493
2819.35	548.224
2818.7	563.471
2818.04	620.872
2817.39	570.96
2816.74	551.714
2816.09	597.597
2815.43	563.033
2814.78	524.65
2814.13	562.858
2813.47	593.397
2812.82	574.166
2812.17	620.002
2811.51	581.64
2810.86	562.419
2810.21	589.11
2809.55	600.492
2808.9	596.574
2808.25	650.012
2807.59	626.973
2806.94	584.829
2806.28	642.065
2805.63	619.037
2804.98	588.376
2804.32	645.585
2803.67	641.665
2803.01	622.47
2802.36	633.828
2801.7	610.823
2801.05	629.813
2800.39	583.918
2799.74	660.144
2799.08	625.704
2798.43	656.124
2797.77	594.996
2797.12	640.665
2796.46	621.501
2795.8	636.653
2795.15	647.989
2794.49	659.321
2793.84	605.871
2793.18	636.256
2792.52	628.538
2791.87	674.145
2791.21	738.778
2790.55	624.436
2789.9	689.057
2789.24	616.629
2788.58	707.871
2787.93	612.631
2787.27	688.627
2786.61	661.892
2785.95	654.182
2785.3	669.291
2784.64	684.395
2783.98	634.868
2783.32	577.753
2782.67	642.27
2782.01	691.568
2781.35	626.873
2780.69	679.956
2780.03	691.244
2779.38	687.339
2778.72	637.872
2778.06	652.958
2777.4	728.769
2776.74	762.811
2776.08	705.775
2775.42	644.962
2774.76	713.141
2774.11	652.346
2773.45	747.047
2772.79	674.891
2772.13	708.904
2771.47	727.745
2770.81	697.314
2770.15	689.626
2769.49	765.29
2768.83	727.291
2768.17	674.154
2767.51	692.982
2766.85	696.66
2766.19	715.479
2765.53	772.143
2764.87	647.136
2764.21	722.711
2763.55	737.731
2762.88	726.268
2762.22	718.591
2761.56	699.571
2760.9	725.928
2760.24	706.913
2759.58	714.361
2758.92	710.471
2758.26	729.252
2757.59	782.029
2756.93	687.473
2756.27	751.57
2755.61	781.662
2754.95	773.989
2754.28	781.417
2753.62	800.167
2752.96	815.137
2752.3	754.638
2751.63	803.564
2750.97	822.299
2750.31	731.656
2749.64	806.958
2748.98	738.967
2748.32	769.009
2747.65	851.808
2746.99	783.842
2746.33	821.398
2745.66	757.226
2745	809.841
2744.34	821.012
2743.67	760.635
2743.01	734.162
2742.34	767.926
2741.68	756.514
2741.02	737.58
2740.35	726.177
2739.69	793.779
2739.02	793.655
2738.36	748.401
2737.69	846.049
2737.03	845.917
2736.36	785.639
2735.7	759.207
2735.03	838.003
2734.37	789.027
2733.7	796.417
2733.04	886.439
2732.37	841.234
2731.7	901.181
2731.04	859.742
2730.37	754.502
2729.71	859.472
2729.04	806.802
2728.37	806.675
2727.71	821.554
2727.04	858.933
2726.37	858.799
2725.71	918.658
2725.04	851.031
2724.37	828.407
2723.71	876.999
2723.04	775.686
2722.37	861.738
2721.71	854.11
2721.04	812.776
2720.37	846.353
2719.7	816.265
2719.03	887.268
2718.37	928.304
2717.7	849.564
2717.03	838.205
2716.36	853.039
2715.69	826.719
2715.03	789.188
2714.36	882.555
2713.69	893.633
2713.02	852.37
2712.35	829.809
2711.68	852.102
2711.01	908.019
2710.34	855.571
2709.67	862.908
2709.01	851.567
2708.34	840.231
2707.67	840.099
2707	937.03
2706.33	925.685
2705.66	828.507
2704.99	861.96
2704.32	861.824
2703.65	865.419
2702.98	854.094
2702.31	898.709
2701.64	857.554
2700.96	846.236
2700.29	905.74
2699.62	868.331
2698.95	924.086
2698.28	920.216
2697.61	893.996
2696.94	949.722
2696.27	923.506
2695.6	893.575
2694.92	904.602
2694.25	986.345
2693.58	915.482
2692.91	978.593
2692.24	900.313
2691.57	959.687
2690.89	821.928
2690.22	925.919
2689.55	936.927
2688.88	996.258
2688.2	947.783
2687.53	969.931
2686.86	1029.23
2686.18	984.486
2685.51	932.329
2684.84	943.324
2684.17	1087.99
2683.49	1013.57
2682.82	991.136
2682.14	931.596
2681.47	875.785
2680.8	938.723
2680.12	979.383
2679.45	953.265
2678.78	960.532
2678.1	952.964
2677.43	1001.01
2676.75	982.319
2676.08	1004.4
2675.4	1007.95
2674.73	981.856
2674.05	985.406
2673.38	981.547
2672.7	992.502
2672.03	966.426
2671.35	1062.53
2670.68	992.033
2670	1014.08
2669.33	976.919
2668.65	976.765
2667.98	984.01
2667.3	980.156
2666.62	1046.57
2665.95	976.15
2665.27	1005.57
2664.59	979.539
2663.92	1075.47
2663.24	1082.7
2662.56	1041.88
2661.89	1060.19
2661.21	1048.94
2660.53	1052.47
2659.86	1078.15
2659.18	993.071
2658.5	1066.74
2657.83	1014.9
2657.15	1077.47
2656.47	1062.54
2655.79	1058.69
2655.11	1117.53
2654.44	1065.73
2653.76	1087.68
2653.08	1113.32
2652.4	1079.97
2651.72	1087.17
2651.05	1046.47
2650.37	1094.19
2649.69	1057.19
2649.01	1149.09
2648.33	1071.58
2647.65	1097.19
2646.97	1170.64
2646.29	1137.33
2645.61	1159.23
2644.93	1107.53
2644.25	1177.26
2643.57	1081.43
2642.9	1143.79
2642.22	1095.8
2641.54	1150.78
2640.86	1150.6
2640.18	1146.74
2639.49	1080.41
2638.81	1083.91
2638.13	1131.5
2637.45	1109.28
2636.77	1178.89
2636.09	1119.95
2635.41	1141.8
2634.73	1141.62
2634.05	1229.53
2633.37	1115.57
2632.69	1122.73
2632	1162.91
2631.32	1151.72
2630.64	1133.2
2629.96	1151.36
2629.28	1099.85
2628.6	1183.99
2627.91	1117.83
2627.23	1220.26
2626.55	1106.48
2625.87	1179.57
2625.18	1109.8
2624.5	1190.19
2623.82	1116.77
2623.14	1127.57
2622.45	1244.53
2621.77	1174.8
2621.09	1149
2620.4	1203.69
2619.72	1203.5
2619.04	1217.94
2618.35	1199.47
2617.67	1159.06
2616.98	1199.09
2616.3	1140.41
2615.62	1180.43
2614.93	1191.21
2614.25	1183.71
2613.56	1223.71
2612.88	1197.95
2612.19	1274.44
2611.51	1168.36
2610.83	1230.24
2610.14	1262.89
2609.46	1291.89
2608.77	1284.38
2608.08	1203.92
2607.4	1232.91
2606.71	1316.6
2606.03	1206.99
2605.34	1184.93
2604.66	1254
2603.97	1312.12
2603.28	1279.11
2602.6	1209.68
2601.91	1264.14
2601.23	1227.51
2600.54	1234.6
2599.85	1281.74
2599.17	1226.93
2598.48	1197.61
2597.79	1328.45
2597.11	1280.93
2596.42	1302.56
2595.73	1225.96
2595.04	1258.5
2594.36	1291.03
2593.67	1243.56
2592.98	1286.98
2592.29	1315.86
2591.61	1250.23
2590.92	1340.88
2590.23	1246.2
2589.54	1235.11
2588.85	1285.76
2588.16	1249.24
2587.48	1296.25
2586.79	1288.78
2586.1	1324.87
2585.41	1255.71
2584.72	1364.37
2584.03	1346.01
2583.34	1345.8
2582.65	1356.47
2581.96	1294.6
2581.27	1316.15
2580.58	1319.57
2579.9	1351.98
2579.21	1344.52
2578.52	1351.55
2577.83	1373.08
2577.14	1325.77
2576.44	1329.18
2575.75	1412.25
2575.06	1375.82
2574.37	1350.27
2573.68	1397.1
2572.99	1367.93
2572.3	1400.28
2571.61	1334.94
2570.92	1370.9
2570.23	1363.45
2569.54	1363.23
2568.84	1384.71
2568.15	1373.64
2567.46	1438.48
2566.77	1402.12
2566.08	1441.64
2565.39	1448.63
2564.69	1347.27
2564	1459.01
2563.31	1455.17
2562.62	1328.58
2561.92	1454.7
2561.23	1385.9
2560.54	1454.24
2559.85	1490.09
2559.15	1475.42
2558.46	1482.4
2557.77	1435.29
2557.07	1525.2
2556.38	1456.46
2555.69	1434.6
2554.99	1369.5
2554.3	1502.61
2553.6	1451.93
2552.91	1437.29
2552.22	1447.87
2551.52	1480.05
2550.83	1461.81
2550.13	1439.98
2549.44	1468.54
2548.74	1471.91
2548.05	1486.07
2547.35	1615.35
2546.66	1597.11
2545.96	1568.08
2545.27	1528.28
2544.57	1628.7
2543.88	1517
2543.18	1656.94
2542.49	1548.86
2541.79	1595.33
2541.1	1623.81
2540.4	1609.19
2539.7	1637.66
2539.01	1648.18
2538.31	1669.45
2537.61	1579.45
2536.92	1625.85
2536.22	1672.25
2535.52	1632.51
2534.83	1721.94
2534.13	1621.23
2533.43	1599.46
2532.74	1685.26
2532.04	1695.74
2531.34	1738.49
2530.64	1817.06
2529.95	1694.94
2529.25	1640.92
2528.55	1658.57
2527.85	1658.31
2527.15	1604.33
2526.46	1729.39
2525.76	1754.18
2525.06	1800.43
2524.36	1807.3
2523.66	1771.23
2522.96	1792.41
2522.26	1770.66
2521.57	1695.27
2520.87	1734.34
2520.17	1834.17
2519.47	1751.66
2518.77	1740.66
2518.07	1747.53
2517.37	1750.82
2516.67	1704.1
2515.97	1746.69
2515.27	1707.13
2514.57	1674.72
2513.87	1724.44
2513.17	1681.33
2512.47	1738.16
2511.77	1766.43
2511.07	1755.45
2510.37	1751.6
2509.66	1779.86
2508.96	1733.21
2508.26	1804.25
2507.56	1746.92
2506.86	1686.04
2506.16	1742.8
2505.46	1824.48
2504.76	1692.36
2504.05	1823.9
2503.35	1766.62
2502.65	1691.55
2501.95	1830.14
2501.25	1769.33
2500.54	1733.46
2499.84	1811.47
2499.14	1693.76
2498.44	1761.09
2497.73	1668.32
2497.03	1781.86
2496.33	1753.13
2495.62	1706.63
2494.92	1788.12
2494.22	1816.27
2493.51	1773.33
2492.81	1801.48
2492.11	1779.87
2491.4	1761.83
2490.7	1814.82
2489.99	1725.76
2489.29	1821.34
2488.59	1771.35
2487.88	1806.56
2487.18	1809.82
2486.47	1710.19
2485.77	1784.41
2485.06	1638.7
2484.36	1766.11
2483.65	1733.91
2482.95	1726.55
2482.24	1697.91
2481.54	1761.44
2480.83	1814.31
2480.13	1718.36
2479.42	1735.79
2478.71	1792.19
2478.01	1791.9
2477.3	1809.32
2476.6	1858.59
2475.89	1833.52
2475.18	1734.13
2474.48	1765.7
2473.77	1790.18
2473.06	1850.03
2472.36	1768.39
2471.65	1764.57
2470.94	1725.39
2470.24	1774.61
2469.53	1806.14
2468.82	1841.19
2468.11	1837.36
2467.41	1766.41
2466.7	1882.69
2465.99	1878.86
2465.28	1786.75
2464.57	1899.44
2463.87	1786.17
2463.16	1743.54
2462.45	1775.02
2461.74	1901.75
2461.03	1746.23
2460.32	1872.92
2459.61	1830.31
2458.9	1837.06
2458.2	1850.87
2457.49	1903.45
2456.78	1733.98
2456.07	1885.22
2455.36	1874.35
2454.65	1782.46
2453.94	1901.93
2453.23	1912.19
2452.52	1915.4
2451.81	1925.65
2451.1	1840.87
2450.39	1889.84
2449.68	1963.43
2448.97	1878.68
2448.26	1906.52
2447.55	1871.05
2446.83	1874.26
2446.12	1873.96
2445.41	1915.85
2444.7	1915.54
2443.99	1957.4
2443.28	1992.23
2442.57	1872.46
2441.85	1879.19
2441.14	1977.22
2440.43	1983.93
2439.72	1983.61
2439.01	1909.57
2438.29	1870.66
2437.58	1919.49
2436.87	1929.71
2436.16	1971.49
2435.44	2013.27
2434.73	1967.35
2434.02	2054.7
2433.3	1966.72
2432.59	2071.56
2431.88	1994.13
2431.16	1962.27
2430.45	1975.97
2429.74	2101.76
2429.02	2048.89
2428.31	1961.01
2427.6	1974.7
2426.88	2086.41
2426.17	1984.57
2425.45	1987.75
2424.74	2043.41
2424.02	2088.57
2423.31	2049.75
2422.59	2063.41
2421.88	1951.19
2421.16	2073.24
2420.45	2058.92
2419.73	2076.07
2419.02	2061.76
2418.3	2103.35
2417.59	2036.64
2416.87	1962.96
2416.16	1973.13
2415.44	2084.54
2414.72	2108.65
2414.01	2073.4
2413.29	2034.68
2412.57	2023.88
2411.86	2128.22
2411.14	2086.02
2410.42	2075.22
2409.71	2085.35
2408.99	2088.5
2408.27	2074.22
2407.56	2150.57
2406.84	2035.22
2406.12	2160.33
2405.4	2111.21
2404.69	2072.56
2403.97	2082.67
2403.25	2207.69
2402.53	2054.15
2401.81	2102.55
2401.1	2206.63
2400.38	2195.83
2399.66	2202.44
2398.94	2216
2398.22	2187.82
2397.5	2166.6
2396.78	2124.52
2396.06	2148.52
2395.35	2207.27
2394.63	2165.2
2393.91	2223.93
2393.19	2209.67
2392.47	2178.05
2391.75	2334
2391.03	2229.44
2390.31	2308.94
2389.59	2197.48
2388.87	2290.84
2388.15	2318.24
2387.43	2206.83
2386.71	2213.41
2385.98	2254.68
2385.26	2191.89
2384.54	2288.63
2383.82	2302.13
2383.1	2277.49
2382.38	2259.8
2381.66	2304.48
2380.94	2328.37
2380.21	2324.53
2379.49	2310.3
2378.77	2327.24
2378.05	2295.7
2377.33	2326.49
2376.6	2395.34
2375.88	2349.97
2375.16	2304.6
2374.44	2273.09
2373.71	2373.04
2372.99	2348.45
2372.27	2382.65
2371.55	2309.66
2370.82	2399.17
2370.1	2270.89
2369.38	2315.46
2368.65	2446.38
2367.93	2311.25
2367.21	2310.88
2366.48	2462.47
2365.76	2403.37
2365.03	2489.3
2364.31	2433.66
2363.58	2378.05
2362.86	2346.6
2362.14	2397.98
2361.41	2352.75
2360.69	2328.22
2359.96	2362.33
2359.24	2375.74
2358.51	2396.05
2357.79	2416.34
2357.06	2446.97
2356.33	2363.87
2355.61	2377.27
2354.88	2383.78
2354.16	2386.84
2353.43	2434.66
2352.71	2441.16
2351.98	2506.17
2351.25	2433.48
2350.53	2484.71
2349.8	2384.53
2349.07	2507.99
2348.35	2425.03
2347.62	2438.4
2346.89	2413.93
2346.17	2506.37
2345.44	2533.47
2344.71	2388.7
2343.98	2467.36
2343.26	2466.96
2342.53	2549.01
2341.8	2490.2
2341.07	2465.76
2340.34	2496.27
2339.62	2509.59
2338.89	2450.84
2338.16	2580.86
2337.43	2532.4
2336.7	2449.65
2335.97	2511
2335.24	2627.2
2334.52	2513.61
2333.79	2540.64
2333.06	2564.22
2332.33	2635.79
2331.6	2484.57
2330.87	2706.89
2330.14	2531.73
2329.41	2647.78
2328.68	2616.53
2327.95	2602.41
2327.22	2516.4
2326.49	2598.15
2325.76	2611.42
2325.03	2676.01
2324.3	2600.31
2323.57	2685.41
2322.83	2729.44
2322.1	2667.44
2321.37	2684.1
2320.64	2704.18
2319.91	2683.23
2319.18	2686.22
2318.45	2648.2
2317.71	2746.84
2316.98	2760.06
2316.25	2663.99
2315.52	2738.68
2314.79	2687.02
2314.05	2730.97
2313.32	2764.65
2312.59	2835.87
2311.86	2692.11
2311.12	2739.43
2310.39	2718.52
2309.66	2745.36
2308.92	2796.07
2308.19	2744.47
2307.46	2887.2
2306.72	2767.44
2305.99	2647.73
2305.26	2797.21
2304.52	2902.36
2303.79	2724.78
2303.05	2806.06
2302.32	2761.35
2301.59	2835.79
2300.85	2903.41
2300.12	2749.79
2299.38	2759.56
2298.65	2769.31
2297.91	2853.9
2297.18	2812.63
2296.44	2679.56
2295.71	2638.32
2294.97	2770.47
2294.24	2797.21
2293.5	2708.4
2292.76	2833.68
2292.03	2795.85
2291.29	2764.83
2290.56	2659.1
2289.82	2804.67
2289.08	2722.74
2288.35	2746.06
2287.61	2799.91
2286.87	2687.48
2286.14	2751.51
2285.4	2795.16
2284.66	2835.4
2283.93	2933.29
2283.19	2858.22
2282.45	2783.17
2281.71	2847.12
2280.98	2938.16
2280.24	2856.36
2279.5	2906.71
2278.76	2885.92
2278.02	2936.25
2277.29	2922.23
2276.55	2860.81
2275.81	2972.05
2275.07	2873.42
2274.33	2920.33
2273.59	2902.94
2272.85	2987.04
2272.11	2989.93
2271.37	2894.76
2270.64	3009.25
2269.9	2900.58
2269.16	2967.71
2268.42	2957.09
2267.68	2916.06
2266.94	2881.8
2266.2	2908.36
2265.46	2891
2264.72	3035.73
2263.98	2950.83
2263.23	2994.23
2262.49	3054.5
2261.75	2949.39
2261.01	2996.15
2260.27	2904.57
2259.53	3018.78
2258.79	2937.35
2258.05	2967.22
2257.31	2858.86
2256.56	3094.35
2255.82	2969.14
2255.08	3103.45
2254.34	3069.25
2253.6	2863.27
2252.85	2963.84
2252.11	2956.63
2251.37	2959.51
2250.63	3073.49
2249.88	2958.55
2249.14	2978.26
2248.4	2971.04
2247.65	2940.28
2246.91	2959.99
2246.17	3067.12
2245.42	3187.67
2244.68	3086.29
2243.94	3122.77
2243.19	3142.42
2242.45	3067.99
2241.71	3077.56
2240.96	3140.89
2240.22	3120.22
2239.47	3123.07
2238.73	3041.98
2237.98	3179.13
2237.24	3279.3
2236.49	3117.68
2235.75	3264.81
2235	3143.51
2234.26	3065.84
2233.51	3098.88
2232.77	3225.8
2232.02	3060.99
2231.28	3218.04
2230.53	3150.49
2229.78	3143.27
2229.04	3219.82
2228.29	3182.45
2227.54	3145.08
2226.8	3164.66
2226.05	3197.63
2225.3	3190.41
2224.56	3246.8
2223.81	3222.84
2223.06	3148.7
2222.32	3131.46
2221.57	3181.12
2220.82	3100.33
2220.07	3216.87
2219.33	3263.15
2218.58	3316.1
2217.83	3362.35
2217.08	3378.51
2216.33	3227.61
2215.59	3253.81
2214.84	3259.95
2214.09	3179.27
2213.34	3202.13
2212.59	3255.02
2211.84	3401.36
2211.09	3364.09
2210.34	3323.5
2209.59	3282.92
2208.84	3312.41
2208.09	3441.94
2207.35	3444.71
2206.6	3284.11
2205.85	3380.25
2205.1	3339.7
2204.35	3299.16
2203.59	3225.32
2202.84	3491.31
2202.09	3310.87
2201.34	3376.93
2200.59	3456.3
2199.84	3265.97
2199.09	3318.69
2198.34	3314.82
2197.59	3474
2196.84	3433.51
2196.09	3253.32
2195.33	3472.3
2194.58	3438.48
2193.83	3417.97
2193.08	3450.65
2192.33	3493.3
2191.57	3429.58
2190.82	3419.05
2190.07	3524.8
2189.32	3451.15
2188.56	3586.75
2187.81	3606.09
2187.06	3429.54
2186.3	3561.75
2185.55	3534.62
2184.8	3563.91
2184.04	3520.19
2183.29	3526.25
2182.54	3528.99
2181.78	3591.42
2181.03	3640.57
2180.27	3639.97
2179.52	3536.62
2178.77	3589.07
2178.01	3555.35
2177.26	3601.14
2176.5	3544.24
2175.75	3537.04
2174.99	3543.08
2174.24	3655.07
2173.48	3624.68
2172.73	3657.18
2171.97	3683.06
2171.22	3589.81
2170.46	3628.92
2169.7	3701.09
2168.95	3750.09
2168.19	3603.99
2167.44	3689.35
2166.68	3639.17
2165.92	3734.41
2165.17	3618.15
2164.41	3789.35
2163.65	3640.09
2162.9	3573.44
2162.14	3754.47
2161.38	3592.08
2160.62	3508.96
2159.87	3713.02
2159.11	3682.71
2158.35	3761.29
2157.59	3813.45
2156.83	3621.53
2156.08	3713.27
2155.32	3636.82
2154.56	3613.15
2153.8	3714.74
2153.04	3717.42
2152.28	3871.68
2151.53	3811.75
2150.77	3653.01
2150.01	3770.97
2149.25	3757.18
2148.49	3749.98
2147.73	3726.32
2146.97	3781.66
2146.21	3764.59
2145.45	3852.81
2144.69	3746.91
2143.93	3825.23
2143.17	3818.02
2142.41	3860.14
2141.65	3869.37
2140.89	3816.14
2140.13	3799.08
2139.37	3837.89
2138.61	3722.27
2137.85	3859.62
2137.08	3783.45
2136.32	3779.55
2135.56	3703.41
2134.8	3942.44
2134.04	3843.33
2133.28	3914.89
2132.51	3871.59
2131.75	3746.3
2130.99	3673.52
2130.23	3882.8
2129.47	3810.03
2128.7	3927.42
2127.94	3877.61
2127.18	3883.53
2126.41	3928.76
2125.65	3869.15
2124.89	4025.74
2124.12	3936.65
2123.36	3945.83
2122.6	3948.45
2121.83	3990.36
2121.07	3901.33
2120.31	4041.4
2119.54	3903.32
2118.78	4049.89
2118.01	3934.74
2117.25	4022.39
2116.48	4002.11
2115.72	4034.15
2114.95	3896.2
2114.19	3977.26
2113.42	4025.62
2112.66	4047.83
2111.89	4021.03
2111.13	4118.35
2110.36	4019.71
2109.6	4071.28
2108.83	4096.73
2108.07	4089.52
2107.3	4000.74
2106.53	4052.29
2105.77	4002.69
2105	3985.72
2104.23	4128.55
2103.47	4114.83
2102.7	4114.15
2101.93	4133.03
2101.17	4187.75
2100.4	4164.25
2099.63	4147.28
2098.86	4166.14
2098.1	4074.26
2097.33	4174.54
2096.56	4131.52
2095.79	4150.37
2095.02	4182.24
2094.26	4256.39
2093.49	4177.6
2092.72	4212.7
2091.95	4163.22
2091.18	4061.72
2090.41	4282.15
2089.64	4164.41
2088.87	4205.98
2088.11	4176.04
2087.34	4373.55
2086.57	4168.16
2085.8	4248.68
2085.03	4163.54
2084.26	4357.68
2083.49	4106.97
2082.72	4262.11
2081.95	4254.91
2081.18	4377.52
2080.41	4279.46
2079.63	4317.69
2078.86	4281.3
2078.09	4264.37
2077.32	4322.03
2076.55	4305.11
2075.78	4271.99
2075.01	4371.75
2074.24	4464.99
2073.47	4363.82
2072.69	4363.1
2071.92	4420.68
2071.15	4384.33
2070.38	4341.52
2069.6	4457.33
2068.83	4226.81
2068.06	4400.85
2067.29	4371
2066.51	4392.92
2065.74	4230.48
2064.97	4417.34
2064.19	4558.88
2063.42	4441.75
2062.65	4363.44
2061.87	4375.65
2061.1	4378.15
2060.33	4467.89
2059.55	4283.04
2058.78	4576.21
2058	4291.31
2057.23	4552.1
2056.46	4477.11
2055.68	4518.32
2054.91	4620.83
2054.13	4484.57
2053.36	4525.76
2052.58	4454.06
2051.81	4437.2
2051.03	4591.22
2050.26	4580.79
2049.48	4415.66
2048.7	4463.26
2047.93	4639.74
2047.15	4523
2046.38	4525.47
2045.6	4640.66
2044.82	4684.97
2044.05	4529.66
2043.27	4487.07
2042.49	4701.95
2041.72	4549.94
2040.94	4439.8
2040.16	4689.97
2039.38	4512.3
2038.61	4572.65
2037.83	4594.4
2037.05	4696.51
2036.27	4811.43
2035.5	4527.85
2034.72	4613.85
2033.94	4613.09
2033.16	4711.89
2032.38	4637.25
2031.6	4623.64
2030.83	4671.03
2030.05	4695.93
2029.27	4618.13
2028.49	4665.5
2027.71	4809.09
2026.93	4654.33
2026.15	4884.47
2025.37	4758.6
2024.59	4629.57
2023.81	4667.27
2023.03	4807.52
2022.25	4659.32
2021.47	4716.21
2020.69	4753.87
2019.91	4689.03
2019.13	4784.32
2018.35	4825.15
2017.57	4878.77
2016.79	4791.54
2016	4918.76
2015.22	4789.95
2014.44	4760.37
2013.66	4801.16
2012.88	4822.75
2012.1	4940.26
2011.31	4949.03
2010.53	4893.87
2009.75	4867.49
2008.97	5023.26
2008.19	4878.66
2007.4	4928.96
2006.62	4870.65
2005.84	4873.03
2005.05	5022.29
2004.27	4979.95
2003.49	4739.75
2002.7	4895.33
2001.92	4913.66
2001.14	4998.98
2000.35	4963.06
1999.57	4965.43
1998.79	4932.72
1998	4890.45
1997.22	5087.27
1996.43	4943.01
1995.65	4919.88
1994.86	5087.92
1994.08	5103
1993.29	5118.08
1992.51	5034.44
1991.72	5135.48
1990.94	4975.46
1990.15	5086.03
1989.37	5155.2
1988.58	5011.16
1987.8	5089.86
1987.01	5054.03
1986.22	5021.39
1985.44	5290.82
1984.65	5026.08
1983.86	5079.27
1983.08	5129.28
1982.29	5141.13
1981.5	5184.76
1980.72	5171.19
1979.93	5036.94
1979.14	5226.63
1978.35	5152.74
1977.57	5215.36
1976.78	5116.11
1975.99	5207.28
1975.2	5184.21
1974.42	5205.55
1973.63	5242.74
1972.84	5305.29
1972.05	5310.75
1971.26	5214.77
1970.47	5141
1969.68	5175
1968.89	5456.14
1968.11	5490.08
1967.32	5356.13
1966.53	5187.39
1965.74	5303.69
1964.95	5293.31
1964.16	5320.91
1963.37	5339.01
1962.58	5505.83
1961.79	5372.04
1961	5409.1
1960.21	5433.5
1959.42	5315.6
1958.63	5349.49
1957.83	5405.5
1957.04	5366.67
1956.25	5533.26
1955.46	5387
1954.67	5499.83
1953.88	5350.46
1953.09	5460.1
1952.3	5506.55
1951.5	5486.69
1950.71	5324.8
1949.92	5311.29
1949.13	5534.43
1948.33	5445.18
1947.54	5409.57
1946.75	5355.06
1945.96	5480.29
1945.16	5451
1944.37	5497.38
1943.58	5395.61
1942.78	5583.77
1941.99	5532.43
1941.2	5648.06
1940.4	5420.35
1939.61	5425.75
1938.81	5566.52
1938.02	5508.93
1937.23	5536.34
1936.43	5642.41
1935.64	5396.05
1934.84	5618.51
1934.05	5460.3
1933.25	5729.85
1932.46	5477.35
1931.66	5533.02
1930.87	5500.66
1930.07	5710.31
1929.28	5684.22
1928.48	5526.18
1927.68	5666.61
1926.89	5646.82
1926.09	5790.32
1925.3	5717.15
1924.5	5691.08
1923.7	5759.18
1922.91	5613.87
1922.11	5838.83
1921.31	5724.92
1920.52	5761.6
1919.72	5719.87
1918.92	5769.08
1918.12	5680.34
1917.33	5776.56
1916.53	5734.85
1915.73	5874.89
1914.93	5651.48
1914.13	5725.71
1913.34	5690.31
1912.54	5742.59
1911.74	5707.19
1910.94	5499.65
1910.14	5724.06
1909.34	5851.39
1908.54	5706.5
1907.74	5833.8
1906.94	5911.01
1906.14	5872.5
1905.35	6049.72
1904.55	5786.13
1903.75	5744.53
1902.95	5996.69
1902.15	5842.59
1901.35	6013.43
1900.54	5865.62
1899.74	5808.43
1898.94	5876.15
1898.14	5987.55
1897.34	5977.18
1896.54	5979.3
1895.74	5862.86
1894.94	6024.1
1894.14	5892.08
1893.33	5850.56
1892.53	5961.83
1891.73	6007.59
1890.93	6028.41
1890.13	6205.04
1889.32	5989
1888.52	6072.11
1887.72	6195.69
1886.92	6169.74
1886.11	6112.65
1885.31	6021.34
1884.51	5905.16
1883.7	6009.99
1882.9	6173.91
1882.1	6123.09
1881.29	6100.29
1880.49	6058.83
1879.69	6095.14
1878.88	6063.02
1878.08	6080.66
1877.27	6110.72
1876.47	6261.97
1875.66	6282.67
1874.86	6113.86
1874.06	6134.58
1873.25	6214.3
1872.45	6247.41
1871.64	6109.76
1870.83	6173.92
1870.03	6318.75
1869.22	6156.34
1868.42	6146
1867.61	6234.92
1866.81	6249.38
1866	6322.76
1865.19	6231.78
1864.39	6283.44
1863.58	6347.47
1862.77	6442.47
1861.97	6382.52
1861.16	6229.65
1860.35	6346.3
1859.54	6178.01
1858.74	6254.38
1857.93	6302.86
1857.12	6329.66
1856.31	6340.98
1855.51	6259.47
1854.7	6422.38
1853.89	6387.27
1853.08	6497.53
1852.27	6397.5
1851.46	6535.54
1850.66	6512.81
1849.85	6317.01
1849.04	6590.96
1848.23	6423.02
1847.42	6526.97
1846.61	6485.72
1845.8	6472.28
1844.99	6480.45
1844.18	6497.88
1843.37	6540
1842.56	6665.42
1841.75	6448.33
1840.94	6471.92
1840.13	6520.18
1839.32	6645.52
1838.51	6554.99
1837.7	6504.56
1836.89	6703.81
1836.07	6690.36
1835.26	6532.09
1834.45	6524.83
1833.64	6686.98
1832.83	6615.03
1832.02	6804.82
1831.2	6606.65
1830.39	6688.64
1829.58	6856.78
1828.77	6772.55
1827.95	6777.56
1827.14	6717.98
1826.33	6852.17
1825.52	6903.29
1824.7	6917.5
1823.89	6959.37
1823.08	6706.18
1822.26	6910.93
1821.45	6857.54
1820.63	7028.41
1819.82	6898.23
1819.01	6976.91
1818.19	7067.84
1817.38	6903.95
1816.56	6890.51
1815.75	6975.28
1814.93	6961.83
1814.12	7279.7
1813.3	6885.87
1812.49	7019.65
1811.67	6883.55
1810.86	6965.16
1810.04	6865.91
1809.23	6763.62
1808.41	6937.13
1807.59	7000.3
1806.78	6996.05
1805.96	6948.94
1805.15	6984.51
1804.33	7050.69
1803.51	7083.17
1802.7	6873.86
1801.88	6860.46
1801.06	6773.64
1800.24	6913.21
1799.43	6988.5
1798.61	6858.89
1797.79	7111.5
1796.97	7107.24
1796.16	7011.3
1795.34	7306.53
1794.52	6837.83
1793.7	7163.54
1792.88	6942.43
1792.06	6999.28
1791.24	7117.17
1790.43	7048.81
1789.61	7160.55
1788.79	7067.79
1787.97	7002.52
1787.15	7126.42
1786.33	6844.6
1785.51	7124.01
1784.69	7333.2
1783.87	6896.01
1783.05	7132.6
1782.23	7222.82
1781.41	7139.33
1780.59	7101.57
1779.77	7100.37
1778.95	7135.71
1778.13	7149.73
1777.3	7166.79
1776.48	7113.83
1775.66	7325.68
1774.84	7208.81
1774.02	7015.91
1773.2	7142.49
1772.37	7290.31
1771.55	7222.18
1770.73	7400.34
1769.91	7323.09
1769.08	7273.23
1768.26	7223.37
1767.44	7325.46
1766.62	7184.48
1765.79	7322.98
1764.97	7179.01
1764.15	7332.65
1763.32	7358.73
1762.5	7324.1
1761.68	7298.58
1760.85	7409.61
1760.03	7393.19
1759.2	7276.68
1758.38	7284.55
1757.55	7316.67
1756.73	7633.75
1755.91	7532.43
1755.08	7488.73
1754.26	7517.76
1753.43	7492.26
1752.6	7366.79
1751.78	7610.86
1750.95	7349.16
1750.13	7311.58
1749.3	7316.4
1748.48	7560.31
1747.65	7480.35
1746.82	7282.43
1746	7341.7
1745.17	7376.75
1744.34	7538.79
1743.52	7374.25
1742.69	7524.15
1741.86	7559.14
1741.04	7636.43
1740.21	7668.37
1739.38	7546.24
1738.55	7650.67
1737.72	7585.96
1736.9	7554.48
1736.07	7698.1
1735.24	7603.23
1734.41	7490.28
1733.58	7525.22
1732.75	7484.73
1731.93	7739.84
1731.1	7485.2
1730.27	7631.68
1729.44	7657.52
1728.61	7665.27
1727.78	7666.98
1726.95	7744.02
1726.12	7751.75
1725.29	7660.07
1724.46	7637.69
1723.63	7681.56
1722.8	7776.6
1721.97	7621.76
1721.14	7798.03
1720.31	7601.12
1719.48	7858.57
1718.65	7785.04
1717.81	7852.89
1716.98	7698.2
1716.15	7723.95
1715.32	7662.52
1714.49	7784.45
1713.66	7822.19
1712.82	7850.91
1711.99	7831.55
1711.16	7653.01
1710.33	7915.98
1709.49	7719.47
1708.66	7910.29
1707.83	7803.89
1707	7796.57
1706.16	7828.25
1705.33	7820.92
1704.5	7762.6
1703.66	7992.2
1702.83	7873.9
1701.99	7860.57
1701.16	7991.12
1700.33	8049.7
1699.49	7826.6
1698.66	7828.27
1697.82	7895.83
1696.99	7915.45
1696.15	7962.01
1695.32	7966.65
1694.48	8025.16
1693.65	7942.99
1692.81	8121.18
1691.98	8015.08
1691.14	7974.83
1690.3	7946.56
1689.47	8202.37
1688.63	8269.74
1687.8	8205.56
1686.96	8102.55
1686.12	8113.12
1685.29	8049
1684.45	8310.51
1683.61	8183.65
1682.78	8173.3
1681.94	8145.04
1681.1	8161.56
1680.26	8043.77
1679.43	8137.89
1678.59	8273.76
1677.75	8558.73
1676.91	8294.8
1676.07	8251.64
1675.23	8464.91
1674.4	8233.92
1673.56	8339.82
1672.72	8591.71
1671.88	8459.15
1671.04	8410.04
1670.2	8593.28
1669.36	8460.78
1668.52	8471.25
1667.68	8216.75
1666.84	8733.28
1666	8615.72
1665.16	8581.52
1664.32	8785.34
1663.48	8733.28
1662.64	8556.32
1661.8	8602.44
1660.96	8883.41
1660.12	8554.92
1659.28	8874.43
1658.44	8869.95
1657.59	8794.16
1656.75	8997.63
1655.91	8722.85
1655.07	8777.79
1654.23	8716.91
1653.38	8697.61
1652.54	8844.53
1651.7	8866.76
1650.86	9028.43
1650.01	8825.17
1649.17	9057.97
1648.33	8934.84
1647.48	8936.28
1646.64	8893.26
1645.8	9004.37
1644.95	8884.29
1644.11	8873.89
1643.27	8940.51
1642.42	8930.1
1641.58	9106.26
1640.73	8977.38
1639.89	8931.44
1639.04	8953.6
1638.2	8996.46
1637.36	9024.51
1636.51	8972.68
1635.67	8867.62
1634.82	8910.47
1633.97	9033.13
1633.13	8724.13
1632.28	9180.79
1631.44	9075.79
1630.59	8926.5
1629.74	9155.41
1628.9	9130.21
1628.05	9122.74
1627.2	9041.46
1626.36	9261.34
1625.51	9129.87
1624.66	9001.41
1623.82	9085.44
1622.97	9145.84
1622.12	9277.02
1621.27	9098.48
1620.43	9135.26
1619.58	9163.18
1618.73	9123.29
1617.88	9074.57
1617.03	9238.04
1616.19	9189.32
1615.34	9125.88
1614.49	9274.53
1613.64	9149.26
1612.79	9241.91
1611.94	9181.46
1611.09	9356.48
1610.24	9331.34
1609.39	9438.6
1608.54	9201.65
1607.69	9491.25
1606.84	9513.15
1605.99	9482.12
1605.14	9498.14
1604.29	9693.44
1603.44	9759.37
1602.59	9669.55
1601.74	9711.96
1600.89	9977.58
1600.04	9881.9
1599.18	10006.5
1598.33	9990.07
1597.48	10108.7
1596.63	10629.3
1595.78	10495.5
1594.92	10687.3
1594.07	10629.7
1593.22	11032.6
1592.37	11153.9
1591.51	11190.1
1590.66	11510.6
1589.81	11895.5
1588.96	12075.1
1588.1	12298.6
1587.25	13178.2
1586.39	13744.1
1585.54	14590.9
1584.69	15367.1
1583.83	16629
1582.98	18279.7
1582.12	19894.7
1581.27	21702.2
1580.42	24067.8
1579.56	26128.5
1578.71	27703
1577.85	29566.5
1576.99	30710.2
1576.14	30722.4
1575.28	30448.3
1574.43	30317.5
1573.57	29438.9
1572.72	28592.7
1571.86	27437.3
1571	26127.5
1570.15	25007.9
1569.29	23118.2
1568.43	21450.9
1567.58	20005.9
1566.72	18584.8
1565.86	17365.4
1565.01	16120.1
1564.15	15164
1563.29	14094.5
1562.43	13686.9
1561.58	12824.9
1560.72	12350.7
1559.86	12299.1
1559	11938.7
1558.14	11616.3
1557.28	11430.9
1556.42	11376.5
1555.57	11281.4
1554.71	10965.2
1553.85	11114.6
1552.99	11246.5
1552.13	10918.8
1551.27	10983.8
1550.41	11016.8
1549.55	10852.1
1548.69	10803.8
1547.83	10554.9
1546.97	10486.3
1546.11	10382.8
1545.25	10546.5
1544.39	10289.2
1543.53	10200.3
1542.66	10247.9
1541.8	10182.3
1540.94	10020.9
1540.08	9914.73
1539.22	9892.71
1538.36	9963.52
1537.49	10159
1536.63	9989.09
1535.77	9949.68
1534.91	10179.9
1534.04	9757.88
1533.18	9912.67
1532.32	9974.7
1531.46	9848.43
1530.59	9991.54
1529.73	9795.81
1528.87	9933.09
1528	9925.59
1527.14	9718.4
1526.27	9884.56
1525.41	9903.1
1524.55	10014.2
1523.68	9876.56
1522.82	9808.35
1521.95	9881.83
1521.09	9767.39
1520.22	9892.87
1519.36	9966.3
1518.49	9901.02
1517.63	9971.53
1516.76	9929.37
1515.89	10164.4
1515.03	10035.7
1514.16	9828.98
1513.3	10003.3
1512.43	9949.67
1511.56	9717.15
1510.7	9937.59
1509.83	9777.25
1508.96	9876.49
1508.1	9802.7
1507.23	9948.03
1506.36	9986.66
1505.49	10013.8
1504.63	10046.6
1503.76	9874.91
1502.89	10066.2
1502.02	10006.8
1501.15	9987.84
1500.29	9965.97
1499.42	10059.2
1498.55	10115
1497.68	9940.67
1496.81	9844.02
1495.94	10017.8
1495.07	9993.04
1494.2	10178.2
1493.33	9934.97
1492.46	10059.7
1491.59	9908.54
1490.72	10108
1489.85	10295.8
1488.98	10110.2
1488.11	10122.8
1487.24	10227.3
1486.37	10159.5
1485.5	10318.5
1484.63	10161.7
1483.76	10102.6
1482.88	10092.3
1482.01	10276.9
1481.14	10341.1
1480.27	10316.4
1479.4	10260.1
1478.53	10341.5
1477.65	10408.5
1476.78	10421
1475.91	10270.2
1475.03	10537.7
1474.16	10295.3
1473.29	10293.5
1472.42	10263.1
1471.54	10424.5
1470.67	10168
1469.79	10277.8
1468.92	10327.6
1468.05	10394.4
1467.17	10243.9
1466.3	10296.5
1465.42	10343.3
1464.55	10275.8
1463.67	10322.6
1462.8	10180.8
1461.92	10333.3
1461.05	10280.1
1460.17	10355.4
1459.3	10333.6
1458.42	10249
1457.55	10527
1456.67	10274
1455.79	10260.8
1454.92	10435.9
1454.04	10354.3
1453.17	10110
1452.29	10094
1451.41	10474.3
1450.53	10389.8
1449.66	10439.3
1448.78	10394.8
1447.9	10498.4
1447.02	10453.8
1446.15	10232.7
1445.27	10444.5
1444.39	10482.6
1443.51	10495
1442.63	10305.3
1441.76	10337.7
1440.88	10529.4
1440	10379.6
1439.12	10480.2
1438.24	10518.2
1437.36	10451
1436.48	10557.2
1435.6	10575.3
1434.72	10346.1
1433.84	10279
1432.96	10589.6
1432.08	10363.4
1431.2	10506.5
1430.32	10569.9
1429.44	10491.5
1428.56	10512.3
1427.68	10720.5
1426.8	10576.8
1425.91	10566.4
1425.03	10473.8
1424.15	10786.8
1423.27	10560.9
1422.39	10553.4
1421.51	10596.9
1420.62	10614.9
1419.74	10751.9
1418.86	10662.2
1417.98	10768
1417.09	10477.3
1416.21	10687.8
1415.33	10620.9
1414.44	10735.1
1413.56	10951.1
1412.68	10853
1411.79	10706.8
1410.91	10659.7
1410.02	10595.7
1409.14	10749.3
1408.26	10538.3
1407.37	10703.2
1406.49	10887.8
1405.6	10623.2
1404.72	10968.8
1403.83	10952.8
1402.95	10897.2
1402.06	10677.9
1401.18	10772
1400.29	10835.1
1399.4	10751.3
1398.52	10969.5
1397.63	11086.1
1396.75	10869.8
1395.86	10969.5
1394.97	10967.6
1394.08	10889.5
1393.2	10896.1
1392.31	10995.6
1391.42	10872.6
1390.54	10958
1389.65	11164.5
1388.76	11078.1
1387.87	11025.5
1386.98	10992.6
1386.1	11227.1
1385.21	10940.9
1384.32	11161.3
1383.43	10827.4
1382.54	10898.7
1381.65	11161.1
1380.76	10984.8
1379.87	11157.2
1378.98	11090.6
1378.09	11248.9
1377.21	10878.9
1376.32	10935.9
1375.43	11052
1374.53	11182.1
1373.64	10952.7
1372.75	11293.3
1371.86	11094.8
1370.97	11070.4
1370.08	11009.6
1369.19	11133.9
1368.3	10997.3
1367.41	11090.8
1366.52	11161.7
1365.62	11207.4
1364.73	11289.6
1363.84	11186.7
1362.95	11170.8
1362.05	11258.4
1361.16	11273.3
1360.27	11349.7
1359.38	11272.2
1358.48	11189
1357.59	11360.6
1356.7	11288.6
1355.8	11314.6
1354.91	11153.2
1354.02	11257.6
1353.12	11213.6
1352.23	11111
1351.33	11290.8
1350.44	11316.8
1349.54	11052.1
1348.65	11365.9
1347.75	11241
1346.86	11375.9
1345.96	11253.8
1345.07	11341.2
1344.17	11099.2
1343.28	11370.8
1342.38	11310.2
1341.49	11085
1340.59	11479.2
1339.69	11175.9
1338.8	11388.7
1337.9	11133
1337	11225.8
1336.11	11354.9
1335.21	11305.5
1334.31	11406.6
1333.41	11474.3
1332.52	11346.9
1331.62	11136.1
1330.72	11448.8
1329.82	11221.3
1328.92	11364
1328.03	11373.2
1327.13	11123.6
1326.23	11402.6
1325.33	11161.4
1324.43	11331.9
1323.53	11316
1322.63	11428
1321.73	11253.7
1320.83	11393.4
1319.93	11335.8
1319.03	11514.4
1318.13	11295.8
1317.23	11357.7
1316.33	11355.7
1315.43	11292.6
1314.53	11321.2
1313.63	11272
1312.73	11331.1
1311.83	11379
1310.93	11185.7
1310.03	11372.3
1309.12	11301
1308.22	11329.5
1307.32	11236
1306.42	11295
1305.52	11517.5
1304.61	11590.2
1303.71	11651.9
1302.81	11605.6
1301.9	11542.6
1301	11529.5
1300.1	11596.7
1299.19	11788.4
1298.29	11695
1297.39	11828.5
1296.48	11834.7
1295.58	11630.8
1294.68	11720
1293.77	11778.7
1292.87	11718.6
1291.96	11545.3
1291.06	11255.9
1290.15	11571.6
1289.25	11420.4
1288.34	11446
1287.44	11488.2
1286.53	11276.4
1285.62	11533.8
1284.72	11454.6
1283.81	11587.7
1282.91	11434
1282	11346.5
1281.09	11396.9
1280.19	11394.9
1279.28	11602.4
1278.37	11520.4
1277.46	11598.3
1276.56	11403.4
1275.65	11536.4
1274.74	11512.3
1273.83	11526.8
1272.93	11571.6
1272.02	11930.2
1271.11	11801.5
1270.2	11813.2
1269.29	12091.7
1268.38	11919
1267.47	11881.2
1266.57	12104.6
1265.66	12250.9
1264.75	12276.3
1263.84	12155.9
1262.93	12049.4
1262.02	12269.8
1261.11	12185.2
1260.2	12279.2
1259.29	12153.5
1258.38	12255.7
1257.47	12335.9
1256.55	12207.5
1255.64	12153.2
1254.73	12033.1
1253.82	12047.4
1252.91	12004.1
1252	12034.9
1251.09	12126
1250.17	12189.7
1249.26	12034.1
1248.35	11823.7
1247.44	11947.6
1246.52	11934.6
1245.61	11877.7
1244.7	11845.5
1243.78	11827
1242.87	11822.2
1241.96	11850.2
1241.04	11930.2
1240.13	11980.1
1239.22	11975.2
1238.3	11956.7
1237.39	11716.7
1236.47	11949.8
1235.56	11742.7
1234.64	11702.3
1233.73	11948.9
1232.81	11925
1231.9	12004.8
1230.98	11767.8
1230.07	12047
1229.15	11763.7
1228.24	12040
1227.32	11617.6
1226.4	11945.7
1225.49	11995.5
1224.57	11761.5
1223.65	11784
1222.74	11765.5
1221.82	12060.6
1220.9	12077.6
1219.99	11852
1219.07	11869
1218.15	12068.5
1217.23	11922
1216.31	11781
1215.4	11814.3
1214.48	11945.6
1213.56	11853.7
1212.64	12238
1211.72	11874
1210.8	11882.8
1209.88	12013.9
1208.96	12188.6
1208.05	11963.5
1207.13	12151.7
1206.21	11913.1
1205.29	11897.4
1204.37	12096.3
1203.45	12308.8
1202.53	12102.9
1201.6	12185
1200.68	11954.7
1199.76	12023.2
1198.84	12086.2
1197.92	11913.1
1197	12242
1196.08	12191
1195.16	12121.1
1194.23	12113.5
1193.31	12336.4
1192.39	12337
1191.47	12535.3
1190.54	12861
1189.62	12921.1
1188.7	13428
1187.78	13704.6
1186.85	14211.3
1185.93	14568.9
1185.01	14929.1
1184.08	15535.4
1183.16	16095.5
1182.23	15933
1181.31	16146.6
1180.39	16076.1
1179.46	16143.6
1178.54	15578.4
1177.61	15397.2
1176.69	15008
1175.76	14740.5
1174.84	14022
1173.91	13827.7
1172.98	13247.3
1172.06	13039.7
1171.13	12732.3
1170.21	12449.4
1169.28	12484.9
1168.35	12507
1167.43	12550.7
1166.5	12432.4
1165.57	12303.5
1164.65	12409.2
1163.72	12296.4
1162.79	12601.5
1161.86	12529.2
1160.94	12403.1
1160.01	12398.2
1159.08	12425.6
1158.15	12493.4
1157.22	12437.4
1156.29	12408.2
1155.37	12314.5
1154.44	12559.9
1153.51	12517.4
1152.58	12655
1151.65	12625.9
1150.72	12771.6
1149.79	12747.8
1148.86	12589.6
1147.93	12716.4
1147	12698
1146.07	12926.8
1145.14	12766
1144.21	13016.3
1143.28	12820.6
1142.35	13205
1141.41	13079.1
1140.48	12964.1
1139.55	13214
1138.62	13353.9
1137.69	13402.5
1136.76	13343.8
1135.82	13451.4
1134.89	13446.3
1133.96	13435.9
1133.03	13798
1132.09	13709.8
1131.16	13707.4
1130.23	13793.3
1129.29	13906.1
1128.36	13855.4
1127.43	14230.5
1126.49	14383.2
1125.56	14094.3
1124.62	14391.5
1123.69	14490.6
1122.75	14498.7
1121.82	14806.4
1120.89	15122
1119.95	15063.1
1119.01	15424
1118.08	15362.5
1117.14	15560.1
1116.21	15685.6
1115.27	15463.8
1114.34	15789.5
1113.4	15722.7
1112.46	15810.6
1111.53	15853.2
1110.59	16253.4
1109.65	16474.6
1108.72	16565.1
1107.78	16940.9
1106.84	16991.2
1105.9	16889.6
1104.97	17281.1
1104.03	17669.9
1103.09	17800
1102.15	18471
1101.21	18489
1100.28	18826.6
1099.34	19238.8
1098.4	19498.9
1097.46	19886.8
1096.52	20027
1095.58	20398.7
1094.64	20328.5
1093.7	20426
1092.76	20608.6
1091.82	20658.1
1090.88	21066.5
1089.94	21405.7
1089	22409.3
1088.06	23407.2
1087.12	25164.6
1086.18	27928.2
1085.24	30420
1084.29	34158.9
1083.35	38602.8
1082.41	42567.3
1081.47	46450.7
1080.53	49480.9
1079.58	51738
1078.64	53227.6
1077.7	54066.8
1076.76	53632.9
1075.81	52231.4
1074.87	50655.4
1073.93	48083.4
1072.98	44720.1
1072.04	41270.5
1071.1	37596.9
1070.15	33967.1
1069.21	30240.5
1068.26	27378.4
1067.32	24988.5
1066.38	22535.9
1065.43	20841
1064.49	19562.1
1063.54	18294.2
1062.6	17637.7
1061.65	17256.4
1060.7	16854.1
1059.76	16269.6
1058.81	16034.1
1057.87	15743.2
1056.92	15333.6
1055.97	15412.7
1055.03	14913.5
1054.08	14879.1
1053.13	14784.1
1052.19	14620.4
1051.24	14543.9
1050.29	14319.7
1049.34	14285.4
1048.4	14114.1
1047.45	14235.5
1046.5	13861.2
1045.55	13613.5
1044.6	13740.3
1043.65	13632.4
1042.71	13569.4
1041.76	13740.8
1040.81	13461.8
1039.86	13601.6
1038.91	13715
1037.96	13565.1
1037.01	13478.5
1036.06	13339.2
1035.11	13400
1034.16	13016.2
1033.21	13197.9
1032.26	13358.6
1031.31	13240.5
1030.36	13367
1029.4	13333.1
1028.45	13194
1027.5	13262.6
1026.55	13244.5
1025.6	13171.2
1024.65	13386.8
1023.69	13184.8
1022.74	13366.2
1021.79	13088.3
1020.84	13408.7
1019.88	13325
1018.93	13343.6
1017.98	13619.2
1017.02	13661.3
1016.07	13761.1
1015.12	13742.9
1014.16	13897.7
1013.21	14036.7
1012.25	14021.1
1011.3	13730.4
1010.34	13751.6
1009.39	13636.5
1008.43	13505.8
1007.48	13471.9
1006.52	13333.5
1005.57	13289.2
1004.61	13430.7
1003.66	13420.4
1002.7	13326.5
1001.74	13120.2
1000.79	13227.6
999.832	13303.7
998.875	13288.2
997.919	13382.5
996.962	13367
996.004	13260.2
995.047	13312.6
994.089	13096.2
993.132	13276.5
992.174	13313.3
991.216	13300.5
990.258	13131.1
989.299	13272.2
988.341	13181.2
987.382	13397.8
986.423	13356.3
985.464	13208
984.505	13299.4
983.545	13078.1
982.586	13292
981.626	13326.1
980.666	13490.4
979.706	13475
978.746	13269.5
977.785	13238.5
976.824	13230.9
975.864	13332.6
974.903	13231.3
973.941	13273.2
972.98	13517.8
972.019	13424.4
971.057	13510.4
970.095	13443
969.133	13489.9
968.171	13471.9
967.209	13490.3
966.246	13547.6
965.283	13625.7
964.32	13420.7
963.357	13690.9
962.394	13672.8
961.431	13807.9
960.467	13719.8
959.503	13520.2
958.54	13580
957.575	13699.4
956.611	13826.6
955.647	13642.7
954.682	13632.4
953.717	13718.1
952.752	13617.2
951.787	13718.3
950.822	13783.2
949.857	13726.3
948.891	13669.5
947.925	13690.3
946.959	13768.1
945.993	13726.8
945.026	13781.2
944.06	13558.9
943.093	13809.9
942.126	13652.3
941.159	13900.6
940.192	13890.3
939.225	13743.1
938.257	13867.2
937.289	13590.9
936.322	13730.5
935.353	13821
934.385	13684.3
933.417	13748.9
932.448	13669
931.479	13648.5
930.51	13687.3
929.541	13870.6
928.572	13834.5
927.602	13576.7
926.633	13994.5
925.663	13628.6
924.693	13724
923.723	13775.7
922.752	13713.9
921.782	13876.3
920.811	13953.7
919.84	13737.4
918.869	13647.4
917.898	13647.5
916.926	13704.3
915.955	13673.5
914.983	13737.9
914.011	13727.7
913.039	13853.8
912.067	13535.1
911.094	13756.3
910.122	13797.5
909.149	13802.7
908.176	13831
907.203	13659
906.229	13546.1
905.256	13936.5
904.282	13785.1
903.308	13972.6
902.334	13857.1
901.36	13947
900.386	14162.6
899.411	13908.6
898.436	13960
897.461	13721.5
896.486	13775.5
895.511	14165.2
894.536	13862.7
893.56	13686
892.584	13934.6
891.608	13898.8
890.632	14062.7
889.656	13983.4
888.679	13929.6
887.702	14121.7
886.726	13863.2
885.748	13855.6
884.771	13840.3
883.794	14009.1
882.816	13919.6
881.839	14019.4
880.861	14351.8
879.882	14098.7
878.904	14254.6
877.926	14180.5
876.947	13976.1
875.968	14068
874.989	14251.9
874.01	14119.1
873.031	13971.1
872.051	14047.7
871.072	14177.8
870.092	14111.5
869.112	14149.7
868.131	14425.2
867.151	14259.3
866.17	14019.7
865.19	14358.7
864.209	14019.7
863.228	14348.4
862.246	14412
861.265	14498.6
860.283	14144.5
859.301	14231.1
858.319	14304.9
857.337	14233.5
856.355	14228.4
855.372	14437
854.389	14322.5
853.407	14284.3
852.424	14429.2
851.44	14383.3
850.457	14411.2
849.473	14591.6
848.489	14370.4
847.505	14629.5
846.521	14291.5
845.537	14304.2
844.552	14560.6
843.568	14390.4
842.583	14471.6
841.598	14567.9
840.613	14542.4
839.627	14519.5
838.642	14438.2
837.656	14668.9
836.67	14653.6
835.684	14836
834.698	14757.3
833.711	14790.1
832.724	15020.5
831.738	14939.2
830.751	14873.2
829.763	14878.1
828.776	15113.4
827.789	14814.5
826.801	14928.2
825.813	14930.6
824.825	14895
823.837	14907.4
822.848	14712.5
821.859	14816
820.871	14664.2
819.882	14580.6
818.892	14762.5
817.903	14749.7
816.914	15075.4
815.924	14731.7
814.934	14794.7
813.944	14895.5
812.954	14854.9
811.963	14902.7
810.973	14693.1
809.982	14667.7
808.991	14685.2
808	14662.3
807.008	14833.7
806.017	14626.8
805.025	14798
804.033	14860.9
803.041	14767.5
802.049	14958.8
801.057	14681.5
800.064	14799.7
799.071	14759.2
798.078	14741.4
797.085	14758.9
796.092	14786.4
795.099	15010.2
794.105	14997.4
793.111	14675.2
792.117	14803.3
791.123	14760.4
790.128	15149.9
789.134	14822.9
788.139	14835.3
787.144	14950.6
786.149	15103.7
785.154	14852.3
784.158	15095.7
783.162	15017.6
782.167	15127.8
781.171	14999.6
780.174	14959.2
779.178	15114.5
778.181	15119.3
777.185	14973.6
776.188	15231.7
775.191	15028.3
774.193	15035.6
773.196	15062.9
772.198	15092.8
771.2	15205.3
770.202	15265.1
769.204	15102
768.206	15029.2
767.207	15241.7
766.208	15071.2
765.209	15071
764.21	15255.9
763.211	15183.1
762.212	15355.4
761.212	15257.6
760.212	15477.3
759.212	15394.5
758.212	15551.6
757.211	15621.3
756.211	15725.9
755.21	15593.1
754.209	16004.8
753.208	16321.6
752.207	16600.7
751.205	17221.7
750.203	17892.5
749.202	18882.4
748.2	19739.6
747.197	20945.8
746.195	22194
745.192	22908.1
744.19	23806.4
743.187	24672
742.183	24662.5
741.18	24251.8
740.177	23926
739.173	22678.7
738.169	21434.4
737.165	20252.8
736.161	19328
735.156	17915.7
734.152	17113.6
733.147	16625.3
732.142	16149.6
731.137	16032.2
730.131	15698.6
729.126	15670.8
728.12	15578.5
727.114	15575.6
726.108	15525.6
725.102	15535.1
724.095	15450.3
723.089	15425.1
722.082	15802.2
721.075	15652.9
720.068	15729.4
719.06	15607.4
718.053	15860.1
717.045	15807.6
716.037	15675.7
715.029	15963
714.021	15858.4
713.012	15875.4
712.004	16122.8
710.995	16184.3
709.986	16382
708.977	16232.8
707.967	16054
706.958	16281.4
705.948	16167
704.938	16245.7
703.928	16274.9
702.917	16113.5
701.907	16051.2
700.896	15993.9
699.885	15906.8
698.874	15822.3
697.863	15868.9
696.851	16053.8
695.84	15937.2
694.828	15835.4
693.816	15896.8
692.804	15723.4
691.791	15816.8
690.779	15675.7
689.766	15709.8
688.753	15827.9
687.74	15770.7
686.727	16026.9
685.713	15794.5
684.7	15818.7
683.686	15675.3
682.672	15650.2
681.658	15960.4
680.643	15826.8
679.629	15853.5
678.614	15572.2
677.599	15702.4
676.584	15879.2
675.568	15699.1
674.553	16050.7
673.537	15865.6
672.521	15764.2
671.505	15827.8
670.489	15738.8
669.472	15758
668.456	15858.4
667.439	15850.6
666.422	16118
665.405	16137.2
664.387	15981.9
663.37	16001
662.352	16066.9
661.334	15729.9
660.316	15835.1
659.297	15751.2
658.279	15952
657.26	15657
656.241	16017.3
655.222	15818.1
654.203	16058
653.183	15866.2
652.164	16052.1
651.144	15909.4
650.124	16016.8
649.104	15773.7
648.083	16202
647.063	15995.7
646.042	15965.8
645.021	15923.7
644	15952.6
642.978	16243.4
641.957	16140
640.935	16352.4
639.913	16227
638.891	15955
637.869	16392.3
636.846	16149.6
635.824	16889.8
634.801	17615.1
633.778	18103
632.755	19871
631.731	20702.8
630.708	21492.8
629.684	20988.2
628.66	19946.7
627.636	18917.8
626.611	18069.9
625.587	17473.6
624.562	16867.8
623.537	16737.9
622.512	16468.9
621.487	16387.9
620.461	16416.5
619.436	16369.6
618.41	16403.2
617.384	16232
616.357	16682.2
615.331	16325.9
614.304	16184.1
613.277	16463.5
612.25	16540.8
611.223	16306.6
610.196	16478.8
609.168	16480.6
608.141	16606.5
607.113	16661.8
606.084	16573.6
605.056	16611.9
604.028	16514
602.999	16785.6
601.97	16512.8
600.941	16674.9
599.912	16499.4
598.882	16583.7
597.852	16432.6
596.823	16781.5
595.793	16518.7
594.762	16547.2
593.732	16515.1
592.701	16565.4
591.671	16593.8
590.64	16724.1
589.608	16592.6
588.577	16495
587.545	16547.6
586.514	16602.7
585.482	16553.6
584.45	16606.3
583.417	16494.2
582.385	16554.1
581.352	16650.3
580.319	16528.7
579.286	16552.2
578.253	16713.7
577.219	16512.2
576.186	16932.4
575.152	16878.5
574.118	16935.8
573.083	16616
572.049	17014.2
571.014	16781.4
569.98	17019.9
568.945	16852.5
567.909	17170.6
566.874	16834.2
565.838	17342.9
564.803	17235.9
563.767	17213.4
562.73	17400.8
561.694	17293.9
560.658	17283.4
559.621	17342.9
558.584	17236
557.547	17555.9
556.509	17646.6
555.472	17677.1
554.434	17432.9
553.396	17685
552.358	17705.8
551.32	17743.4
550.282	17675.1
549.243	17330.1
548.204	17565.1
547.165	17571.5
546.126	17496
545.086	17543.3
544.047	17523.2
543.007	17534.4
541.967	17331.6
540.927	17321.2
539.886	17325.2
538.846	17331.6
537.805	17318.8
536.764	17197.9
535.723	17185.1
534.681	17309.1
533.64	17257.9
532.598	17429.9
531.556	17486.6
530.514	17696.9
529.472	17302.7
528.429	17196.3
527.387	17600.7
526.344	17528
525.301	17373.7
524.257	17648.4
523.214	17470.3
522.17	17433.5
521.126	17255.4
520.082	17688
519.038	17720.6
517.993	17425.3
516.949	17402.9
515.904	17445.2
514.859	17300.8
513.814	17443.5
512.768	17339.8
511.723	17582.8
510.677	17357.3
509.631	17287.1
508.585	17491.8
507.538	17357.1
506.492	17373
505.445	17314.9
504.398	17419.1
503.351	17322.7
502.303	17307.6
501.256	17113.4
500.208	17520.7
499.16	17326.5
498.112	17547.5
497.063	17384.5
496.015	17078.5
494.966	17499.6
493.917	17086.4
492.868	17543.1
491.819	17411.2
490.769	17415.1
489.72	17314.2
488.67	17311
487.62	17236.4
486.569	17147.5
485.519	17434.6
484.468	17088.7
483.417	17342.5
482.366	17263.1
481.315	17200.5
480.263	17204.4
479.212	17127.5
478.16	17397.6
477.108	17282.7
476.055	17234.3
475.003	17518.5
473.95	17460.6
472.897	17196.2
471.844	17069.5
470.791	17137.6
469.738	17345.6
468.684	17313.9
467.63	17049.7
466.576	17288.4
465.522	17432.2
464.468	17398.2
463.413	17501.6
462.358	17597.9
461.303	17601.7
460.248	17562.9
459.193	17448.3
458.137	17627.4
457.081	17770.9
456.025	17824.4
454.969	17513.4
453.913	17902.9
452.856	17930.4
451.799	18121
450.742	18103.4
449.685	17948.7
448.628	18207.8
447.57	18322.6
446.512	18305
445.454	18625.3
444.396	18182.4
443.338	18427
442.279	18364.5
441.221	18507.5
440.162	18289.2
439.102	18469.9
438.043	18294.2
436.983	18102
435.924	18688.4
434.864	18416
433.804	18209.7
432.743	18472.8
431.683	18235.9
430.622	18376.3
429.561	18646.2
428.5	18390.6
427.439	18276.5
426.377	18661.6
425.315	18500.4
424.253	18605.2
423.191	18477
422.129	18619.4
421.066	18559.5
420.004	18452.5
418.941	18597.2
417.878	18504.4
416.814	18599.7
415.751	18671.4
414.687	18780.7
413.623	18843
412.559	18651.5
411.495	18826.6
410.43	18945.2
409.365	19037.9
408.301	18912.2
407.235	19467.3
406.17	19057.7
405.105	19079.9
404.039	19226.5
402.973	19176
401.907	19186.5
400.84	19016.4
399.774	18862.8
398.707	18594.4
397.64	18579.2
396.573	18475
395.506	18740.9
394.438	18674.2
393.371	18516.1
392.303	18407.3
391.235	18300.9
390.166	18409.8
389.098	18179.4
388.029	18255.5
386.96	18303.5
385.891	18321.2
384.822	18327.1
383.752	18213.8
382.682	18439.4
381.613	18218.6
380.542	18243.2
379.472	18200.1
378.402	18196.7
377.331	18226
376.26	18332.3
375.189	18235.5
374.117	18309
373.046	18181.9
371.974	18122.5
370.902	18378
369.83	18435.2
368.758	18205.6
367.685	18416.6
366.613	18257
365.54	18288.5
364.466	18196.6
363.393	18335.2
362.32	18010.4
361.246	18093.2
360.172	17940.8
359.098	18361
358.023	18201.7
356.949	18056.3
355.874	18483.3
354.799	18172.8
353.724	18290.3
352.649	18133.4
351.573	18164.9
350.497	18166.1
349.421	18130.2
348.345	18354.4
347.269	18485.7
346.192	18445
345.115	18457.8
344.038	18419.5
342.961	18446.2
341.884	18521.6
340.806	18576.2
339.728	18391.7
338.65	18708.3
337.572	18670
336.494	18926.1
335.415	18718.6
334.336	18835.6
333.257	18702.3
332.178	19041.6
331.099	18727.7
330.019	19141
328.939	19047.1
327.859	19295.8
326.779	19100.1
325.699	19420.4
324.618	19178.5
323.537	19686
322.456	19388.6
321.375	19567.6
320.293	19575.5
319.212	19782.1
318.13	19736.8
317.048	19867.1
315.966	19863.3
314.883	19824.9
313.8	19848.9
312.718	20039.1
311.634	19737.6
310.551	20082.3
309.468	19870.9
308.384	19887.9
307.3	19833.4
306.216	19617.5
305.132	19683
304.047	19739.2
302.962	19781.5
301.877	19812.4
300.792	19502.2
299.707	19735.8
298.621	19690.6
297.536	19590.2
296.45	19653.3
295.364	19564.4
294.277	19498.6
293.191	19442
292.104	19364.7
291.017	19637
289.93	19286.1
288.842	19487
287.755	19400.6
286.667	19330.3
285.579	19522
284.491	19548.1
283.402	19875.2
282.314	19928.8
281.225	19922.8
280.136	19749.1
279.047	19646.7
277.957	20056.1
276.867	20043.1
275.778	19757.2
274.688	19861.2
273.597	19997.3
272.507	19771.2
271.416	20031
270.325	20162.4
269.234	19886
268.143	19939.5
267.051	20176.2
265.96	20172.4
264.868	20019.7
263.776	20366.2
262.683	20497.4
261.591	20285.3
260.498	20288.3
259.405	20417.1
258.312	20168.5
257.218	20199
256.125	20142.6
255.031	20099.9
253.937	20112.1
252.843	20074
251.748	20223.3
250.654	19956.8
249.559	19832
248.464	19988.1
247.369	19815.4
246.273	19667.8
245.178	19602.5
244.082	19799.5
242.986	19731.9
241.889	19411.2
240.793	19138.5
239.696	19360.5
238.599	19110.7
237.502	19061.5
236.405	18862
235.307	19270.7
234.21	18795.6
233.112	19263.4
232.014	18783.9
230.915	18878.2
229.817	18781.3
228.718	18912
227.619	18947.1
226.52	19050.4
225.42	19351.5
224.321	19277.3
223.221	18987.3
222.121	19201.9
221.021	19211.8
219.92	19112.8
218.82	19354.5
217.719	19257.7
216.618	19490.1
215.516	19427.4
214.415	19412.4
213.313	19395.1
212.211	19543.4
211.109	19703
210.007	19486.1
208.904	19550.4
207.802	19766.6
206.699	19747
205.595	19994.8
204.492	20022.7
203.389	20093.7
202.285	20087.6
201.181	20002.2
200.077	19708.6
198.972	19695.8
197.867	19841.4
196.763	19887.5
195.658	19940.2
194.552	19925.1
193.447	20027.6
192.341	20179.8
191.235	20044.9
190.129	20249
189.023	19983
187.916	20415.3
186.81	20090.6
185.703	20138.7
184.595	20582
183.488	20663.9
182.381	20411.6
181.273	20845.6
180.165	20870.9
179.057	21142.2
177.948	20847.2
176.839	21136.4
175.731	21125.6
174.622	21473.2
173.512	21656.2
172.403	21679.1
171.293	21720
170.183	21848.8
169.073	21673.5
167.963	21766.2
166.852	21721.5
165.742	21863.6
164.631	21852.7
163.519	21614.6
162.408	21417
161.296	21462.4
160.185	21060.3
159.073	21164.2
157.96	21477.1
156.848	21517.9
155.735	21608.2
154.622	21372.7
153.509	21602.2
152.396	22123.6
151.282	21623.2
150.169	21879.4
149.055	22066
147.941	22178.5
146.826	22371.7
145.712	22627.6
144.597	22558.2
143.482	22874.6
142.367	23040.6
141.251	23372.4
140.136	23374.6
139.02	23585.2
137.904	23569.5
136.788	24140.6
135.671	24263.6
134.554	24252.3
133.437	24437.9
132.32	24840.5
131.203	25057.3
130.085	25262.8
128.968	25381
127.85	25666.8
126.732	25977.2
125.613	25887.3
124.494	26369.5
123.376	26411.4
122.257	26938.1
121.137	27294.7
120.018	27769.7
118.898	27628.2
117.778	28127.4
116.658	28291.6
115.538	28978
114.417	29291.5
113.296	29653.9
112.176	29922.6
111.054	30079.6
109.933	30287.9
108.811	30025.7
107.689	29794.9
106.567	29648.9
105.445	29402.6
104.323	29022.8
103.2	28304.7
102.077	27927.4
100.954	27928.8
