4001.37	10.4953
4000.9	20.9905
4000.42	10.4938
3999.94	36.723
3999.47	15.7362
3998.99	31.4679
3998.51	36.7073
3998.04	10.4863
3997.56	36.6969
3997.08	-5.24167
3996.6	-5.24092
3996.13	15.7205
3995.65	10.4789
3995.17	-26.1934
3994.7	10.4759
3994.22	41.8975
3993.74	5.23645
3993.26	41.8856
3992.79	5.23496
3992.31	41.8737
3991.83	31.4008
3991.35	0
3990.88	-5.23198
3990.4	31.3874
3989.92	31.3829
3989.44	26.1487
3988.96	0
3988.49	36.5978
3988.01	20.91
3987.53	47.0409
3987.05	20.9041
3986.57	10.4506
3986.09	5.22453
3985.61	36.5665
3985.14	20.8922
3984.66	31.3338
3984.18	0
3983.7	36.5457
3983.22	0
3982.74	26.0966
3982.26	36.5301
3981.78	31.307
3981.3	20.8684
3980.83	10.4327
3980.35	5.21561
3979.87	46.9338
3979.39	31.2848
3978.91	26.0669
3978.43	26.0632
3977.95	10.4238
3977.47	0
3976.99	10.4208
3976.51	10.4193
3976.03	46.8804
3975.55	10.4164
3975.07	20.8298
3974.59	-10.4134
3974.11	20.8238
3973.63	20.8209
3973.15	31.2269
3972.67	26.0187
3972.19	36.421
3971.71	46.8203
3971.23	10.403
3970.74	5.20077
3970.26	0
3969.78	25.9964
3969.3	25.9927
3968.82	0
3968.34	31.1824
3967.86	31.1779
3967.38	5.19558
3966.9	0
3966.42	0
3965.93	31.1602
3965.45	15.5779
3964.97	15.5756
3964.49	20.7646
3964.01	5.1904
3963.53	0
3963.04	25.9446
3962.56	36.3172
3962.08	15.5623
3961.6	-10.3734
3961.12	31.1157
3960.63	36.2965
3960.15	25.9224
3959.67	10.3675
3959.19	10.366
3958.71	31.0936
3958.22	46.6337
3957.74	10.3616
3957.26	20.7202
3956.77	0
3956.29	20.7143
3955.81	15.5335
3955.33	20.7083
3954.84	5.17635
3954.36	20.7024
3953.88	25.8744
3953.39	51.7413
3952.91	20.6936
3952.43	5.17266
3951.94	41.3753
3951.46	-15.5135
3950.98	36.1931
3950.49	10.3394
3950.01	25.8448
3949.53	15.5047
3949.04	10.335
3948.56	0
3948.07	25.8301
3947.59	15.4958
3947.11	10.3291
3946.62	10.3276
3946.14	0
3945.65	20.6493
3945.17	10.3232
3944.69	10.3217
3944.2	20.6405
3943.72	30.9563
3943.23	20.6346
3942.75	51.5791
3942.26	0
3941.78	15.4693
3941.29	10.3114
3940.81	30.9298
3940.32	36.0796
3939.84	15.4605
3939.35	30.9165
3938.87	20.6081
3938.38	25.7564
3937.9	20.6022
3937.41	5.14981
3936.93	30.8944
3936.44	10.2967
3935.95	-5.1476
3935.47	-36.0281
3934.98	10.2923
3934.5	20.5816
3934.01	10.2893
3933.52	25.7196
3933.04	10.2864
3932.55	25.7123
3932.07	41.1337
3931.58	25.7049
3931.09	20.561
3930.61	-5.13951
3930.12	5.13878
3929.63	20.5522
3929.15	25.6865
3928.66	51.3658
3928.17	10.2717
3927.69	35.9457
3927.2	20.5375
3926.71	20.5346
3926.23	30.7974
3925.74	15.3965
3925.25	35.9201
3924.76	15.3921
3924.28	61.5596
3923.79	20.5169
3923.3	20.514
3922.81	0
3922.33	25.6352
3921.84	0
3921.35	46.1301
3920.86	10.2497
3920.38	20.4964
3919.89	35.8636
3919.4	20.4905
3918.91	-5.1219
3918.42	30.727
3917.94	30.7226
3917.45	20.4788
3916.96	20.4759
3916.47	25.5912
3915.98	40.9401
3915.49	30.7007
3915	0
3914.52	30.6919
3914.03	25.5729
3913.54	-5.11385
3913.05	30.6787
3912.56	5.11238
3912.07	0
3911.58	20.4437
3911.09	0
3910.6	5.10946
3910.11	10.2175
3909.62	20.432
3909.14	30.6436
3908.65	25.5327
3908.16	25.529
3907.67	30.6304
3907.18	10.2087
3906.69	20.4144
3906.2	20.4115
3905.71	0
3905.22	20.4057
3904.73	20.4027
3904.24	25.4998
3903.75	5.09923
3903.26	30.591
3902.77	25.4888
3902.27	-5.09703
3901.78	50.963
3901.29	30.5734
3900.8	10.1897
3900.31	20.3765
3899.82	15.2802
3899.33	20.3706
3898.84	5.09193
3898.35	-5.0912
3897.86	35.6333
3897.37	15.2692
3896.87	10.178
3896.38	30.5297
3895.89	20.3502
3895.4	30.5209
3894.91	10.1722
3894.42	20.3415
3893.93	10.1693
3893.43	50.8391
3892.94	-10.1664
3892.45	30.4947
3891.96	25.4086
3891.47	45.7289
3890.97	30.4816
3890.48	30.4772
3889.99	15.2364
3889.5	15.2342
3889.01	20.3094
3888.51	-5.07662
3888.02	35.5313
3887.53	35.5262
3887.03	25.3722
3886.54	15.2211
3886.05	20.2919
3885.56	0
3885.06	25.3576
3884.57	10.1416
3884.08	20.2803
3883.58	15.208
3883.09	-10.1372
3882.6	15.2037
3882.1	25.3358
3881.61	30.3986
3881.12	30.3943
3880.62	35.4549
3880.13	0
3879.64	40.5083
3879.14	0
3878.65	0
3878.15	15.1841
3877.66	40.485
3877.17	15.1797
3876.67	25.2959
3876.18	20.2338
3875.68	40.4618
3875.19	20.228
3874.7	5.05627
3874.2	10.1111
3873.71	20.2193
3873.21	15.1623
3872.72	5.05337
3872.22	25.2632
3871.73	45.4673
3871.23	35.3584
3870.74	15.1514
3870.24	45.4477
3869.75	50.4902
3869.25	10.0966
3868.76	0
3868.26	10.0937
3867.77	5.04612
3867.27	50.454
3866.77	15.134
3866.28	55.4834
3865.78	30.2593
3865.29	35.2975
3864.79	-5.04177
3864.3	25.2053
3863.8	15.121
3863.3	15.1188
3862.81	15.1166
3862.31	30.2289
3861.81	10.0749
3861.32	15.1101
3860.82	20.1439
3860.33	0
3859.83	-5.03454
3859.33	20.1353
3858.84	5.03309
3858.34	45.2913
3857.84	25.1582
3857.35	10.0618
3856.85	-5.0302
3856.35	15.0884
3855.85	0
3855.36	50.2803
3854.86	5.02731
3854.36	55.2924
3853.86	40.2069
3853.37	5.02514
3852.87	30.1465
3852.37	15.0711
3851.87	20.0919
3851.38	5.02225
3850.88	15.0646
3850.38	10.0416
3849.88	30.1205
3849.38	55.213
3848.89	20.0746
3848.39	-5.01792
3847.89	25.086
3847.39	10.033
3846.89	5.01576
3846.39	10.0301
3845.9	15.0429
3845.4	10.0272
3844.9	20.0515
3844.4	25.0608
3843.9	10.0229
3843.4	20.0428
3842.9	25.0499
3842.4	10.0185
3841.91	-5.00855
3841.41	20.0313
3840.91	45.064
3840.41	0
3839.91	15.017
3839.41	30.0297
3838.91	20.0169
3838.41	20.014
3837.91	0
3837.41	20.0083
3836.91	45.0121
3836.41	30.0038
3835.91	9.99981
3835.41	-24.9959
3834.91	39.9877
3834.41	34.9842
3833.91	29.9822
3833.41	-4.99631
3832.91	29.9735
3832.41	29.9692
3831.91	14.9825
3831.41	9.98687
3830.91	9.98543
3830.4	19.968
3829.9	19.9651
3829.4	34.9339
3828.9	29.939
3828.4	19.9565
3827.9	9.97681
3827.4	34.9138
3826.9	4.98697
3826.4	24.9312
3825.89	24.9276
3825.39	4.98481
3824.89	29.9046
3824.39	9.96675
3823.89	19.9306
3823.39	-4.98194
3822.88	29.8873
3822.38	29.883
3821.88	34.8585
3821.38	9.95814
3820.88	-4.97835
3820.37	-9.95527
3819.87	39.8153
3819.37	19.9048
3818.87	19.9019
3818.36	9.94954
3817.86	34.8184
3817.36	9.94667
3816.86	4.97262
3816.35	14.9157
3815.85	14.9136
3815.35	24.8523
3814.84	9.9395
3814.34	44.7213
3813.84	-4.96832
3813.33	39.7408
3812.83	9.93377
3812.33	24.8309
3811.82	9.93091
3811.32	14.8942
3810.82	49.6402
3810.31	14.8899
3809.81	29.7755
3809.31	19.8475
3808.8	44.6504
3808.3	14.8813
3807.79	19.8389
3807.29	29.7541
3806.79	44.6247
3806.28	29.7455
3805.78	14.8706
3805.27	29.7369
3804.77	24.7772
3804.26	4.95472
3803.76	4.95401
3803.25	29.7198
3802.75	9.90516
3802.24	24.7593
3801.74	34.6581
3801.23	-19.8017
3800.73	9.89945
3800.22	0
3799.72	24.7415
3799.21	29.6855
3798.71	29.6812
3798.2	4.94615
3797.7	0
3797.19	9.88945
3796.69	9.88802
3796.18	9.8866
3795.67	0
3795.17	-4.94187
3794.66	9.88232
3794.16	9.88089
3793.65	24.6987
3793.14	4.93902
3792.64	14.8149
3792.13	-9.87518
3791.63	9.87376
3791.12	24.6808
3790.61	4.93545
3790.11	19.739
3789.6	4.93403
3789.09	4.93332
3788.59	14.7978
3788.08	4.93189
3787.57	29.5871
3787.06	14.7914
3786.56	44.3678
3786.05	19.7162
3785.54	-4.92833
3785.04	29.5657
3784.53	19.7076
3784.02	19.7048
3783.51	14.7765
3783.01	49.2477
3782.5	4.92406
3781.99	29.5401
3781.48	9.84528
3780.97	4.92193
3780.47	-4.92122
3779.96	19.682
3779.45	49.1979
3778.94	24.5954
3778.43	14.7551
3777.93	14.753
3777.42	-14.7509
3776.91	9.83248
3776.4	4.91553
3775.89	14.7445
3775.38	29.4846
3774.87	19.6536
3774.36	0
3773.86	9.82395
3773.35	29.4676
3772.84	19.6422
3772.33	39.2788
3771.82	29.4548
3771.31	39.2674
3770.8	24.5386
3770.29	19.628
3769.78	19.6252
3769.27	29.4335
3768.76	24.5244
3768.25	24.5208
3767.74	29.4208
3767.23	19.611
3766.72	19.6082
3766.21	24.5067
3765.7	9.80125
3765.19	9.79983
3764.68	4.89921
3764.17	4.8985
3763.66	9.79558
3763.15	9.79416
3762.64	-4.89637
3762.13	9.79133
3761.62	29.3697
3761.11	29.3655
3760.6	53.8289
3760.09	14.6785
3759.57	19.5685
3759.06	14.6742
3758.55	4.89071
3758.04	14.67
3757.53	4.88929
3757.02	4.88858
3756.51	-9.77575
3756	19.5487
3755.48	19.5458
3754.97	0
3754.46	14.6551
3753.95	39.0747
3753.44	24.4182
3752.92	9.76585
3752.41	4.88222
3751.9	29.2891
3751.39	29.2848
3750.88	9.76019
3750.36	24.3969
3749.85	29.2721
3749.34	29.2679
3748.83	0
3748.31	14.6297
3747.8	9.75171
3747.29	24.3758
3746.78	29.2467
3746.26	14.6212
3745.75	14.6191
3745.24	14.617
3744.72	-24.3581
3744.21	24.3546
3743.7	14.6106
3743.18	4.8695
3742.67	14.6064
3742.16	9.73619
3741.64	4.86739
3741.13	14.6
3740.61	4.86598
3740.1	-4.86527
3739.59	38.9165
3739.07	14.5916
3738.56	4.86316
3738.04	29.1747
3737.53	34.0322
3737.02	-9.72208
3736.5	19.4413
3735.99	19.4385
3735.47	19.4357
3734.96	14.5747
3734.44	4.85752
3733.93	43.7113
3733.41	14.5683
3732.9	38.8433
3732.38	19.4188
3731.87	29.124
3731.35	24.2665
3730.84	38.8207
3730.32	19.4075
3729.81	38.8095
3729.29	33.9534
3728.78	29.0987
3728.26	29.0944
3727.75	14.5451
3727.23	19.3907
3726.71	33.9287
3726.2	24.2313
3725.68	29.0733
3725.17	14.5346
3724.65	38.7532
3724.13	9.6869
3723.62	14.5282
3723.1	4.84204
3722.59	14.524
3722.07	-29.0438
3721.55	4.83993
3721.04	-4.83923
3720.52	33.8697
3720	14.5135
3719.49	9.67425
3718.97	-9.67285
3718.45	24.1786
3717.93	19.3401
3717.42	33.8402
3716.9	24.1681
3716.38	0
3715.87	38.6577
3715.35	24.1576
3714.83	-4.83081
3714.31	24.1505
3713.8	14.4882
3713.28	19.3148
3712.76	28.968
3712.24	28.9638
3711.72	19.3064
3711.21	14.4777
3710.69	33.7764
3710.17	33.7715
3709.65	14.4714
3709.13	4.8231
3708.61	19.2896
3708.1	24.1085
3707.58	33.747
3707.06	24.1015
3706.54	38.5568
3706.02	14.4567
3705.5	24.091
3704.98	24.0875
3704.46	14.4504
3703.95	48.1609
3703.43	19.2616
3702.91	4.81469
3702.39	4.81399
3701.87	24.0665
3701.35	24.063
3700.83	24.0595
3700.31	33.6784
3699.79	19.242
3699.27	48.098
3698.75	14.4273
3698.23	28.8504
3697.71	4.8077
3697.19	24.035
3696.67	33.6441
3696.15	19.2224
3695.63	19.2196
3695.11	33.6294
3694.59	9.60702
3694.07	33.6197
3693.55	28.8127
3693.03	24.0071
3692.51	38.4057
3691.99	19.2001
3691.46	-4.79932
3690.94	4.79862
3690.42	52.7771
3689.9	19.1889
3689.38	9.59305
3688.86	33.5708
3688.34	28.7708
3687.82	14.3833
3687.29	33.5561
3686.77	28.7582
3686.25	19.1694
3685.73	28.7499
3685.21	9.58189
3684.69	33.5317
3684.16	19.1582
3683.64	33.522
3683.12	33.5171
3682.6	33.5122
3682.08	9.57353
3681.55	9.57213
3681.03	0
3680.51	23.9234
3679.99	23.9199
3679.46	4.78328
3678.94	9.56517
3678.42	28.6913
3677.89	38.2495
3677.37	28.683
3676.85	4.7798
3676.33	23.8955
3675.8	14.3352
3675.28	19.1108
3674.76	23.8851
3674.23	42.9869
3673.71	23.8781
3673.19	0
3672.66	4.77423
3672.14	0
3671.61	19.0914
3671.09	42.9493
3670.57	23.8573
3670.04	-4.77076
3669.52	19.0802
3668.99	38.1549
3668.47	9.53735
3667.95	0
3667.42	23.8364
3666.9	28.5995
3666.37	47.6589
3665.85	47.652
3665.32	19.058
3664.8	-4.76381
3664.27	19.0525
3663.75	0
3663.22	9.52346
3662.7	33.3272
3662.17	23.8017
3661.65	9.51929
3661.12	23.7948
3660.6	33.3078
3660.07	19.0303
3659.55	23.7844
3659.02	23.7809
3658.49	14.2665
3657.97	14.2644
3657.44	19.0164
3656.92	28.5204
3656.39	19.0108
3655.86	14.2561
3655.34	23.7566
3654.81	28.5038
3654.29	9.49988
3653.76	23.7462
3653.23	9.49711
3652.71	18.9914
3652.18	18.9887
3651.65	37.9718
3651.13	33.2205
3650.6	14.2353
3650.07	37.9552
3649.55	9.48741
3649.02	18.9721
3648.49	9.48464
3647.96	18.9665
3647.44	4.74094
3646.91	4.74025
3646.38	0
3645.85	28.4332
3645.33	-4.73817
3644.8	28.4249
3644.27	4.73679
3643.74	47.361
3643.22	42.6186
3642.69	-9.46943
3642.16	4.73402
3641.63	9.46666
3641.1	18.9306
3640.57	28.3917
3640.05	37.8501
3639.52	4.73057
3638.99	18.9195
3638.46	9.45837
3637.93	28.371
3637.4	9.45561
3636.87	14.1813
3636.35	23.6321
3635.82	37.8059
3635.29	94.5009
3634.76	47.2435
3634.23	14.171
3633.7	18.8919
3633.17	28.3337
3632.64	37.7727
3632.11	33.0463
3631.58	4.72021
3631.05	33.0367
3630.52	33.0318
3629.99	18.8726
3629.46	28.3047
3628.93	28.3006
3628.4	37.7286
3627.87	-9.43078
3627.34	9.4294
3626.81	-9.42802
3626.28	28.2799
3625.75	28.2758
3625.22	28.2717
3624.69	18.845
3624.16	47.1057
3623.63	23.5494
3623.1	32.9643
3622.57	32.9595
3622.03	9.41562
3621.5	9.41425
3620.97	32.945
3620.44	37.646
3619.91	-4.70506
3619.38	14.1131
3618.85	0
3618.32	32.921
3617.78	28.2138
3617.25	9.40324
3616.72	18.8037
3616.19	23.5012
3615.66	32.8969
3615.12	51.6876
3614.59	18.7927
3614.06	28.185
3613.53	28.1808
3613	28.1767
3612.46	42.2589
3611.93	32.8632
3611.4	28.1643
3610.86	28.1602
3610.33	42.2342
3609.8	23.46
3609.27	9.38262
3608.73	0
3608.2	28.1396
3607.67	4.68925
3607.13	28.1314
3606.6	23.4394
3606.07	32.8103
3605.53	18.746
3605	51.544
3604.47	32.7959
3603.93	28.1067
3603.4	9.36753
3602.87	46.8308
3602.33	23.412
3601.8	28.0902
3601.26	9.36204
3600.73	18.7213
3600.2	23.3982
3599.66	28.0738
3599.13	37.4262
3598.59	28.0656
3598.06	51.446
3597.52	28.0573
3596.99	4.67554
3596.45	9.34971
3595.92	18.6967
3595.38	46.7348
3594.85	9.3456
3594.31	23.3606
3593.78	32.7
3593.24	42.0367
3592.71	23.3503
3592.17	23.3469
3591.64	-9.33738
3591.1	-4.66801
3590.57	-4.66732
3590.03	51.333
3589.49	18.6638
3588.96	18.6611
3588.42	27.9875
3587.89	18.6556
3587.35	23.3161
3586.81	18.6501
3586.28	32.633
3585.74	13.9835
3585.2	0
3584.67	65.2372
3584.13	13.9774
3583.6	13.9753
3583.06	23.2888
3582.52	32.5995
3581.98	41.9075
3581.45	13.9671
3580.91	32.5852
3580.37	32.5804
3579.84	18.6146
3579.3	27.9178
3578.76	51.1752
3578.22	27.9097
3577.69	46.5093
3577.15	4.65024
3576.61	23.2478
3576.07	37.191
3575.54	13.9446
3575	41.8276
3574.46	18.5873
3573.92	9.2923
3573.38	9.29094
3572.85	32.5135
3572.31	18.5764
3571.77	27.8606
3571.23	55.7129
3570.69	37.1365
3570.15	51.0552
3569.61	23.2035
3569.08	51.0402
3568.54	13.918
3568	23.1933
3567.46	9.27595
3566.92	9.27459
3566.38	37.0929
3565.84	9.27187
3565.3	18.541
3564.76	41.7111
3564.22	27.8033
3563.68	-4.63321
3563.14	32.4277
3562.6	23.1592
3562.06	27.787
3561.52	37.0439
3560.98	41.6683
3560.44	27.7748
3559.9	13.8853
3559.36	37.0222
3558.82	18.5084
3558.28	23.132
3557.74	37.0058
3557.2	27.7503
3556.66	46.2437
3556.12	41.6132
3555.58	27.7381
3555.04	27.734
3554.5	36.9732
3553.96	41.5888
3553.42	36.9624
3552.87	18.4785
3552.33	4.61894
3551.79	32.3278
3551.25	13.8527
3550.71	13.8507
3550.17	36.9298
3549.63	4.61554
3549.08	23.0743
3548.54	32.2993
3548	32.2946
3547.46	41.5155
3546.92	27.6729
3546.37	41.5033
3545.83	59.9403
3545.29	23.0506
3544.75	36.8755
3544.21	46.0876
3543.66	36.8647
3543.12	27.6444
3542.58	46.0673
3542.03	46.0605
3541.49	27.6322
3540.95	36.8376
3540.41	32.2281
3539.86	64.4468
3539.32	27.616
3538.78	-13.806
3538.23	69.0196
3537.69	46.0063
3537.15	50.5995
3536.6	18.3971
3536.06	59.7818
3535.52	4.59792
3534.97	27.5835
3534.43	9.19314
3533.88	-9.19179
3533.34	27.5713
3532.8	45.9454
3532.25	9.18773
3531.71	27.5591
3531.16	45.9251
3530.62	18.3673
3530.07	41.3204
3529.53	36.7239
3528.98	59.6675
3528.44	9.17826
3527.89	36.7077
3527.35	18.3511
3526.8	22.9355
3526.26	45.8643
3525.71	27.5145
3525.17	45.8508
3524.62	50.4284
3524.08	50.421
3523.53	22.9153
3522.99	45.8238
3522.44	36.6536
3521.9	36.6482
3521.35	18.3214
3520.8	41.2171
3520.26	36.632
3519.71	13.735
3519.17	27.4659
3518.62	0
3518.07	18.3052
3517.53	41.1807
3516.98	36.5996
3516.43	22.8714
3515.89	41.1625
3515.34	27.4376
3514.79	22.8613
3514.25	32.0011
3513.7	27.4255
3513.15	18.281
3512.61	31.9869
3512.06	27.4133
3511.51	9.13643
3510.96	54.8105
3510.42	41.1018
3509.87	9.13239
3509.32	31.9587
3508.77	45.6485
3508.23	-4.56418
3507.68	18.254
3507.13	27.377
3506.58	45.6216
3506.04	36.4919
3505.49	22.8041
3504.94	41.0412
3504.39	54.7136
3503.84	22.794
3503.29	36.465
3502.75	18.2298
3502.2	9.11355
3501.65	50.1171
3501.1	59.2206
3500.55	31.8833
3500	50.095
3499.45	22.7671
3498.9	45.5274
3498.35	4.55207
3497.8	36.4112
3497.26	27.3044
3496.71	45.5006
3496.16	45.4938
3495.61	4.54871
3495.06	31.8363
3494.51	63.6632
3493.96	31.8269
3493.41	36.3682
3492.86	54.5443
3492.31	40.9022
3491.76	27.2641
3491.21	36.3467
3490.66	45.4267
3490.11	40.878
3489.56	45.4133
3489	31.7846
3488.45	22.6999
3487.9	45.3932
3487.35	-4.53865
3486.8	45.3798
3486.25	31.7611
3485.7	9.07327
3485.15	58.9676
3484.6	4.5353
3484.05	40.8116
3483.49	45.3396
3482.94	31.733
3482.39	49.8588
3481.84	36.2556
3481.29	45.3128
3480.74	9.06121
3480.18	27.1796
3479.63	27.1756
3479.08	36.2288
3478.53	31.6955
3477.98	4.52726
3477.42	36.2127
3476.87	13.5778
3476.32	45.2525
3475.77	27.1475
3475.21	18.0957
3474.66	54.279
3474.11	31.658
3473.56	58.7848
3473	27.1274
3472.45	67.8086
3471.9	54.2388
3471.34	31.6346
3470.79	31.63
3470.24	-4.5179
3469.68	0
3469.13	49.6822
3468.58	45.1589
3468.02	45.1522
3467.47	45.1456
3466.91	4.51389
3466.36	-4.51322
3465.81	22.5628
3465.25	31.5832
3464.7	36.0897
3464.14	49.6161
3463.59	22.5494
3463.04	31.5645
3462.48	72.1368
3461.93	27.0473
3461.37	45.0721
3460.82	27.0393
3460.26	27.0353
3459.71	18.0209
3459.15	27.0273
3458.6	13.5116
3458.04	40.5289
3457.49	36.0204
3456.93	18.0075
3456.38	18.0049
3455.82	27.0033
3455.27	26.9993
3454.71	17.9969
3454.15	58.4811
3453.6	44.9788
3453.04	22.4861
3452.49	40.4689
3451.93	31.4712
3451.37	13.4857
3450.82	-4.49455
3450.26	49.4327
3449.7	22.4661
3449.15	62.8958
3448.59	49.4108
3448.04	49.4035
3447.48	13.4717
3446.92	26.9394
3446.36	22.4461
3445.81	22.4428
3445.25	31.4153
3444.69	40.3851
3444.14	40.3791
3443.58	53.8308
3443.02	26.9114
3442.46	40.3611
3441.91	58.2908
3441.35	40.3492
3440.79	58.2735
3440.23	40.3372
3439.68	35.85
3439.12	17.9223
3438.56	13.4398
3438	17.917
3437.44	49.2645
3436.88	62.691
3436.33	49.2499
3435.77	44.766
3435.21	49.2353
3434.65	40.2774
3434.09	49.2207
3433.53	26.8437
3432.97	35.7862
3432.42	4.47262
3431.86	8.94391
3431.3	22.3565
3430.74	49.1769
3430.18	22.3498
3429.62	62.5702
3429.06	22.3432
3428.5	44.6797
3427.94	26.8039
3427.38	44.6665
3426.82	66.9898
3426.26	17.8613
3425.7	44.6466
3425.14	26.784
3424.58	40.17
3424.02	8.92535
3423.46	26.7721
3422.9	35.6908
3422.34	66.9103
3421.78	26.7601
3421.22	53.5123
3420.66	44.587
3420.1	40.1223
3419.54	49.0311
3418.98	40.1104
3418.41	53.4726
3417.85	44.5539
3417.29	35.6378
3416.73	57.9029
3416.17	31.1738
3415.61	35.622
3415.05	35.6167
3414.49	26.7085
3413.92	26.7046
3413.36	17.8004
3412.8	8.89888
3412.24	31.1414
3411.68	26.6887
3411.11	57.8169
3410.55	31.1276
3409.99	4.44613
3409.43	66.6821
3408.86	53.3377
3408.3	44.4415
3407.74	66.6524
3407.18	31.0998
3406.61	26.653
3406.05	39.9736
3405.49	17.7634
3404.92	44.4019
3404.36	44.3953
3403.8	53.2664
3403.24	44.3821
3402.67	22.1878
3402.11	17.7476
3401.54	48.7985
3400.98	31.049
3400.42	48.784
3399.85	31.0398
3399.29	31.0351
3398.73	39.8964
3398.16	57.6196
3397.6	44.3161
3397.03	57.6024
3396.47	48.7333
3395.9	17.7186
3395.34	62.0057
3394.78	26.5699
3394.21	30.9936
3393.65	30.989
3393.08	57.5425
3392.52	22.1284
3391.95	48.6753
3391.39	22.1218
3390.82	44.2371
3390.26	39.8075
3389.69	44.2239
3389.13	35.3739
3388.56	53.0529
3387.99	53.045
3387.43	35.3581
3386.86	30.9337
3386.3	39.766
3385.73	70.6846
3385.17	57.4227
3384.6	66.2471
3384.03	26.4949
3383.47	52.9819
3382.9	30.9015
3382.33	66.2076
3381.77	44.1318
3381.2	13.2376
3380.63	44.1187
3380.07	57.3458
3379.5	39.695
3378.93	39.6891
3378.37	26.4555
3377.8	48.4944
3377.23	48.4872
3376.67	22.0364
3376.1	39.6595
3375.53	57.2775
3374.96	70.4848
3374.4	44.0465
3373.83	39.6359
3373.26	39.63
3372.69	74.8455
3372.12	44.0202
3371.56	35.2109
3370.99	35.2057
3370.42	52.8006
3369.85	65.991
3369.28	57.1837
3368.72	21.9904
3368.15	39.5769
3367.58	39.571
3367.01	17.5845
3366.44	21.9773
3365.87	65.9221
3365.3	74.7006
3364.73	35.148
3364.17	65.8927
3363.6	57.0985
3363.03	65.873
3362.46	21.9544
3361.89	43.9022
3361.32	61.454
3360.75	35.1113
3360.18	48.2709
3359.61	21.938
3359.04	57.0304
3358.47	74.567
3357.9	43.8564
3357.33	39.4649
3356.76	21.9217
3356.19	56.9878
3355.62	56.9793
3355.05	52.5885
3354.48	74.4892
3353.91	52.5728
3353.34	39.4237
3352.77	52.5571
3352.19	78.8238
3351.62	35.0276
3351.05	52.5335
3350.48	87.5428
3349.91	43.7649
3349.34	43.7583
3348.77	61.2525
3348.2	43.7453
3347.62	34.991
3347.05	30.6126
3346.48	48.0983
3345.91	26.2315
3345.34	56.8264
3344.76	34.9649
3344.19	56.8094
3343.62	48.0623
3343.05	34.9492
3342.48	56.784
3341.9	78.6122
3341.33	56.767
3340.76	26.1963
3340.19	52.3847
3339.61	39.2826
3339.04	43.6409
3338.47	39.2709
3337.89	95.9812
3337.32	30.5349
3336.75	61.0607
3336.17	69.7732
3335.6	47.9619
3335.03	43.5952
3334.45	56.6653
3333.88	43.5822
3333.31	34.8605
3332.73	69.7107
3332.16	74.0565
3331.59	56.623
3331.01	56.6145
3330.44	56.6061
3329.86	82.7196
3329.29	43.5301
3328.71	47.876
3328.14	39.1654
3327.56	65.2659
3326.99	65.2561
3326.42	17.399
3325.84	56.5384
3325.27	34.7876
3324.69	34.7824
3324.12	86.9431
3323.54	69.5441
3322.97	26.0751
3322.39	78.2137
3321.81	47.7901
3321.24	52.1268
3320.66	43.4325
3320.09	26.0556
3319.51	86.8391
3318.94	47.7544
3318.36	43.4066
3317.78	65.1001
3317.21	47.7329
3316.63	52.0645
3316.06	43.3806
3315.48	30.3619
3314.9	65.0514
3314.33	60.7055
3313.75	47.6901
3313.17	56.3525
3312.6	91.0174
3312.02	52.0022
3311.44	73.6587
3310.86	51.9866
3310.29	64.9735
3309.71	38.9783
3309.13	56.2935
3308.56	69.2739
3307.98	47.6187
3307.4	47.6116
3306.82	60.5875
3306.25	43.2703
3305.67	43.2638
3305.09	21.6287
3304.51	73.5264
3303.93	82.1643
3303.36	38.9141
3302.78	73.4934
3302.2	60.5149
3301.62	47.5403
3301.04	38.8908
3300.46	30.2438
3299.88	47.5189
3299.31	38.8733
3298.73	60.4605
3298.15	86.3592
3297.57	60.4424
3296.99	60.4333
3296.41	60.4243
3295.83	47.4691
3295.25	73.3503
3294.67	43.1408
3294.09	60.388
3293.51	56.0662
3292.93	34.4971
3292.35	60.3609
3291.77	51.7301
3291.19	56.0326
3290.61	34.4764
3290.03	68.9425
3289.45	60.3156
3288.87	64.6142
3288.29	73.2184
3287.71	60.2885
3287.13	81.8078
3286.55	64.5754
3285.97	68.8701
3285.39	51.6448
3284.81	51.6371
3284.23	38.722
3283.64	68.8288
3283.06	51.6139
3282.48	77.4092
3281.9	77.3975
3281.32	77.3859
3280.74	38.6872
3280.16	73.0648
3279.57	42.9728
3278.99	77.3395
3278.41	85.9199
3277.83	94.4977
3277.25	73.01
3276.66	47.2346
3276.08	64.4012
3275.5	107.319
3274.92	90.1346
3274.33	55.7892
3273.75	55.7809
3273.17	60.0627
3272.59	60.0537
3272	98.6448
3271.42	77.1887
3270.84	60.0266
3270.25	30.0088
3269.67	77.1539
3269.09	77.1423
3268.5	77.1307
3267.92	68.5503
3267.34	81.3913
3266.75	59.9635
3266.17	89.9317
3265.59	38.5364
3265	77.0612
3264.42	89.8912
3263.83	38.519
3263.25	72.7472
3262.67	98.4079
3262.08	89.8372
3261.5	98.3783
3260.91	94.0869
3260.33	76.9686
3259.74	34.2031
3259.16	72.6707
3258.57	72.6598
3257.99	72.6488
3257.4	64.0923
3256.82	115.349
3256.23	72.6161
3255.65	72.6052
3255.06	72.5942
3254.48	76.8529
3253.89	102.455
3253.3	72.5615
3252.72	93.889
3252.13	76.8067
3251.55	85.3279
3250.96	102.378
3250.37	63.9767
3249.79	63.9671
3249.2	72.4851
3248.62	72.4742
3248.03	106.564
3247.44	89.5
3246.86	68.1802
3246.27	63.9093
3245.68	80.9397
3245.09	76.6681
3244.51	80.9153
3243.92	55.3548
3243.33	89.4058
3242.75	51.0813
3242.16	72.3543
3241.57	55.3214
3240.98	76.5874
3240.4	97.8469
3239.81	55.2965
3239.22	46.7823
3238.63	72.289
3238.04	97.788
3237.46	59.5142
3236.87	85.0074
3236.28	76.4952
3235.69	63.7364
3235.1	59.4783
3234.51	59.4694
3233.93	93.4378
3233.34	84.9306
3232.75	76.4261
3232.16	59.4335
3231.57	76.403
3230.98	84.8795
3230.39	72.1367
3229.8	72.1258
3229.21	93.3252
3228.62	76.3455
3228.04	50.8893
3227.45	110.244
3226.86	84.79
3226.27	67.8218
3225.68	63.5733
3225.09	72.0389
3224.5	72.028
3223.91	72.0172
3223.32	67.7707
3222.73	67.7604
3222.14	88.9222
3221.54	63.5063
3220.95	63.4967
3220.36	67.7196
3219.77	55.0139
3219.18	118.474
3218.59	84.6112
3218	50.7591
3217.41	50.7514
3216.82	59.201
3216.23	109.928
3215.63	93.0021
3215.04	63.401
3214.45	88.748
3213.86	59.1564
3213.27	88.7212
3212.68	38.0176
3212.08	97.1415
3211.49	63.3436
3210.9	97.1122
3210.31	67.5461
3209.72	67.5359
3209.12	75.9665
3208.53	75.955
3207.94	67.5054
3207.35	84.369
3206.75	122.317
3206.16	75.9091
3205.57	96.9804
3204.97	101.182
3204.38	63.229
3203.79	71.6487
3203.2	113.778
3202.6	75.8404
3202.01	96.8925
3201.41	67.3933
3200.82	92.6518
3200.23	75.7946
3199.63	96.834
3199.04	105.238
3198.45	71.5514
3197.85	96.7901
3197.26	67.3221
3196.66	63.1049
3196.07	79.9208
3195.47	105.143
3194.88	88.3069
3194.29	63.0668
3193.69	79.8726
3193.1	79.8605
3192.5	96.6586
3191.91	92.4421
3191.31	88.2268
3190.72	100.815
3190.12	84.0002
3189.53	88.1868
3188.93	88.1735
3188.33	75.5659
3187.74	92.3443
3187.14	83.9367
3186.55	113.297
3185.95	71.3246
3185.36	58.729
3184.76	92.2745
3184.16	104.842
3183.57	54.5094
3182.97	83.8479
3182.37	108.986
3181.78	67.058
3181.18	67.0479
3180.58	75.4174
3179.99	62.8384
3179.39	113.092
3178.79	92.1351
3178.2	92.1211
3177.6	62.8003
3177	113.024
3176.41	79.523
3175.81	75.3262
3175.21	75.3148
3174.61	108.772
3174.02	87.8407
3173.42	138.014
3172.82	112.904
3172.22	100.344
3171.62	58.525
3171.03	83.5945
3170.43	83.5819
3169.83	108.64
3169.23	96.09
3168.63	108.607
3168.03	116.944
3167.43	104.398
3166.84	75.1554
3166.24	75.144
3165.64	83.4807
3165.04	66.7744
3164.44	95.9737
3163.84	83.4427
3163.24	87.6016
3162.64	120.955
3162.04	116.767
3161.44	87.5618
3160.84	120.9
3160.24	112.545
3159.64	75.0189
3159.04	83.3417
3158.44	124.994
3157.84	120.809
3157.24	104.13
3156.64	99.9494
3156.04	99.9342
3155.44	112.409
3154.84	124.88
3154.24	124.861
3153.64	149.811
3153.04	116.502
3152.44	116.484
3151.84	99.8283
3151.24	91.4954
3150.64	95.6397
3150.03	153.832
3149.43	87.2968
3148.83	87.2835
3148.23	116.36
3147.63	128.808
3147.03	141.252
3146.42	116.307
3145.82	178.588
3145.22	112.12
3144.62	141.166
3144.02	107.934
3143.41	153.575
3142.81	145.252
3142.21	120.333
3141.61	95.4224
3141	99.5561
3140.4	145.164
3139.8	111.967
3139.19	103.657
3138.59	107.787
3137.99	132.641
3137.39	103.61
3136.78	107.738
3136.18	107.722
3135.58	124.275
3134.97	128.398
3134.37	111.814
3133.76	124.219
3133.16	120.06
3132.56	132.46
3131.95	99.3296
3131.35	120.005
3130.74	119.987
3130.14	115.832
3129.54	132.359
3128.93	119.932
3128.33	103.374
3127.72	140.567
3127.12	152.947
3126.51	103.327
3125.91	123.974
3125.3	132.218
3124.7	123.936
3124.09	136.309
3123.49	111.508
3122.88	107.362
3122.27	132.118
3121.67	136.226
3121.06	103.186
3120.46	119.677
3119.85	132.038
3119.25	140.269
3118.64	127.873
3118.03	119.605
3117.43	131.957
3116.82	140.183
3116.21	103.06
3115.61	98.923
3115	127.756
3114.39	119.496
3113.79	127.717
3113.18	127.698
3112.57	115.322
3111.97	148.249
3111.36	131.757
3110.75	135.854
3110.15	135.833
3109.54	123.466
3108.93	127.562
3108.32	119.314
3107.71	119.296
3107.11	123.391
3106.5	127.484
3105.89	143.912
3105.28	123.334
3104.67	110.984
3104.07	123.297
3103.46	164.371
3102.85	152.02
3102.24	156.105
3101.63	147.866
3101.02	176.591
3100.41	143.715
3099.81	160.115
3099.2	143.671
3098.59	160.066
3097.98	176.457
3097.37	172.327
3096.76	147.686
3096.15	184.58
3095.54	127.135
3094.93	155.82
3094.32	151.696
3093.71	172.169
3093.1	147.551
3092.49	192.607
3091.88	176.188
3091.27	167.968
3090.66	184.327
3090.05	172.012
3089.44	188.365
3088.83	180.148
3088.22	163.746
3087.61	167.814
3087	188.251
3086.39	200.497
3085.77	159.555
3085.16	147.259
3084.55	212.675
3083.94	163.572
3083.33	171.724
3082.72	163.522
3082.11	179.846
3081.49	187.993
3080.88	204.309
3080.27	200.192
3079.66	187.907
3079.05	171.541
3078.43	167.431
3077.82	240.9
3077.21	216.369
3076.6	212.254
3075.98	195.897
3075.37	199.948
3074.76	216.237
3074.15	195.808
3073.53	240.643
3072.92	224.294
3072.31	236.493
3071.69	232.38
3071.08	252.725
3070.47	252.687
3069.85	207.823
3069.24	224.089
3068.63	268.866
3068.01	228.094
3067.4	236.204
3066.79	272.815
3066.17	317.557
3065.56	301.226
3064.94	337.81
3064.33	349.966
3063.71	325.5
3063.1	333.587
3062.48	370.144
3061.87	422.957
3061.26	382.229
3060.64	455.353
3060.03	394.308
3059.41	471.471
3058.79	491.718
3058.18	532.275
3057.56	560.631
3056.95	548.36
3056.33	613.257
3055.72	584.739
3055.1	673.971
3054.49	568.322
3053.87	564.176
3053.25	673.662
3052.64	604.58
3052.02	555.804
3051.41	580.057
3050.79	588.08
3050.17	555.549
3049.56	535.192
3048.94	478.356
3048.32	466.123
3047.71	470.105
3047.09	474.085
3046.47	461.858
3045.85	405.077
3045.24	441.466
3044.62	396.854
3044	412.989
3043.38	388.636
3042.77	449.292
3042.15	396.611
3041.53	437.015
3040.91	380.307
3040.3	335.751
3039.68	347.834
3039.06	372.044
3038.44	343.684
3037.82	315.332
3037.2	303.158
3036.59	282.904
3035.97	299.024
3035.35	258.576
3034.73	270.655
3034.11	290.809
3033.49	274.611
3032.87	222.078
3032.25	266.452
3031.63	226.046
3031.01	217.94
3030.39	270.365
3029.77	213.838
3029.15	242.044
3028.54	209.739
3027.92	217.773
3027.3	185.482
3026.68	233.833
3026.05	209.611
3025.43	201.518
3024.81	201.487
3024.19	145.049
3023.57	249.768
3022.95	221.534
3022.33	185.255
3021.71	193.28
3021.09	221.433
3020.47	253.602
3019.85	209.29
3019.23	181.089
3018.61	217.273
3017.98	233.332
3017.36	237.318
3016.74	197.065
3016.12	188.992
3015.5	237.209
3014.88	209.034
3014.25	168.809
3013.63	188.877
3013.01	241.082
3012.39	212.923
3011.76	232.975
3011.14	196.793
3010.52	220.856
3009.9	216.808
3009.27	248.889
3008.65	224.769
3008.03	232.76
3007.4	220.687
3006.78	212.63
3006.16	212.597
3005.54	248.66
3004.91	212.532
3004.29	192.452
3003.66	200.44
3003.04	192.393
3002.42	168.318
3001.79	196.341
3001.17	188.298
3000.54	216.309
2999.92	220.281
2999.3	208.234
2998.67	200.194
2998.05	224.183
2997.42	196.13
2996.8	244.125
2996.17	208.074
2995.55	208.042
2994.92	152.008
2994.3	191.98
2993.67	223.942
2993.05	223.908
2992.42	191.892
2991.8	219.842
2991.17	227.801
2990.55	219.775
2989.92	223.736
2989.29	187.75
2988.67	167.751
2988.04	211.653
2987.42	247.556
2986.79	239.533
2986.16	247.48
2985.54	211.523
2984.91	219.471
2984.28	183.529
2983.66	263.284
2983.03	231.336
2982.4	223.324
2981.78	207.341
2981.15	203.322
2980.52	223.221
2979.9	199.274
2979.27	227.138
2978.64	211.166
2978.01	215.117
2977.39	242.965
2976.76	203.103
2976.13	234.927
2975.5	266.74
2974.87	238.835
2974.25	195.019
2973.62	258.658
2972.99	238.725
2972.36	246.644
2971.73	246.607
2971.1	242.592
2970.47	254.483
2969.85	218.663
2969.22	198.754
2968.59	230.519
2967.96	218.562
2967.33	242.368
2966.7	202.604
2966.07	206.545
2965.44	234.313
2964.81	234.277
2964.18	226.301
2963.55	242.144
2962.92	281.797
2962.29	250.006
2961.66	206.323
2961.03	218.192
2960.4	249.891
2959.77	198.296
2959.14	237.918
2958.51	233.917
2957.88	225.953
2957.25	281.407
2956.62	261.549
2955.99	245.66
2955.36	249.583
2954.73	241.623
2954.09	249.507
2953.46	257.388
2952.83	237.552
2952.2	285.019
2951.57	261.227
2950.94	277.016
2950.3	233.449
2949.67	276.931
2949.04	245.244
2948.41	284.755
2947.78	276.803
2947.14	256.992
2946.51	268.811
2945.88	339.915
2945.25	276.632
2944.61	264.736
2943.98	272.596
2943.35	280.455
2942.71	288.31
2942.08	319.857
2941.45	292.17
2940.82	280.282
2940.18	268.397
2939.55	319.659
2938.91	307.773
2938.28	256.438
2937.65	256.398
2937.01	323.406
2936.38	264.206
2935.75	307.535
2935.11	260.182
2934.48	291.674
2933.84	275.866
2933.21	271.883
2932.57	275.781
2931.94	275.738
2931.3	287.511
2930.67	275.653
2930.03	366.168
2929.4	271.631
2928.76	271.589
2928.13	267.612
2927.49	291.18
2926.86	326.543
2926.22	295.024
2925.59	228.116
2924.95	283.135
2924.32	283.092
2923.68	290.91
2923.04	271.212
2922.41	282.961
2921.77	259.34
2921.13	341.805
2920.5	263.189
2919.86	298.496
2919.23	251.326
2918.59	290.551
2917.95	298.358
2917.31	341.489
2916.68	294.341
2916.04	278.6
2915.4	270.71
2914.77	302.05
2914.13	298.082
2913.49	298.035
2912.85	301.91
2912.22	348.907
2911.58	305.737
2910.94	282.175
2910.3	289.968
2909.66	352.61
2909.03	317.3
2908.39	289.834
2907.75	305.453
2907.11	321.068
2906.47	289.7
2905.83	281.826
2905.19	273.955
2904.56	316.957
2903.92	328.645
2903.28	305.123
2902.64	273.786
2902	289.386
2901.36	285.431
2900.72	297.116
2900.08	257.981
2899.44	320.473
2898.8	250.087
2898.16	312.56
2897.52	324.231
2896.88	296.84
2896.24	324.13
2895.6	316.271
2894.96	351.358
2894.32	335.69
2893.68	288.805
2893.04	312.173
2892.4	323.83
2891.76	315.978
2891.12	347.131
2890.48	300.281
2889.83	331.427
2889.19	358.666
2888.55	307.937
2887.91	350.76
2887.27	284.461
2886.63	315.586
2885.98	338.911
2885.34	327.174
2884.7	342.7
2884.06	342.647
2883.42	342.594
2882.77	323.078
2882.13	315.245
2881.49	319.087
2880.85	357.945
2880.2	322.878
2879.56	295.602
2878.92	322.778
2878.28	369.388
2877.63	334.341
2876.99	369.273
2876.35	307.032
2875.7	314.757
2875.06	330.249
2874.42	291.351
2873.77	334.031
2873.13	326.212
2872.48	326.161
2871.84	376.58
2871.2	357.114
2870.55	349.296
2869.91	341.481
2869.26	345.308
2868.62	321.979
2867.98	368.473
2867.33	372.294
2866.69	360.604
2866.04	337.287
2865.4	325.606
2864.75	341.058
2864.11	406.881
2863.46	399.069
2862.82	422.25
2862.17	364.086
2861.52	422.119
2860.88	340.741
2860.23	387.145
2859.59	375.472
2858.94	383.155
2858.29	383.095
2857.65	340.476
2857	379.108
2856.36	348.106
2855.71	367.389
2855.06	363.465
2854.42	367.275
2853.77	409.737
2853.12	301.458
2852.48	394.153
2851.83	320.683
2851.18	359.263
2850.53	332.171
2849.89	409.356
2849.24	355.235
2848.59	386.065
2847.94	382.145
2847.3	393.664
2846.65	358.873
2846	447.557
2845.35	420.484
2844.7	428.133
2844.06	385.645
2843.41	435.712
2842.76	408.657
2842.11	408.594
2841.46	381.552
2840.81	427.734
2840.16	416.109
2839.52	365.965
2838.87	389.018
2838.22	396.66
2837.57	404.299
2836.92	461.984
2836.27	423.42
2835.62	377.17
2834.97	369.415
2834.32	423.222
2833.67	419.31
2833.02	442.322
2832.37	403.797
2831.72	376.818
2831.07	395.982
2830.42	395.92
2829.77	376.642
2829.12	411.168
2828.47	437.999
2827.82	395.674
2827.17	464.749
2826.51	391.711
2825.86	426.207
2825.21	410.785
2824.56	426.075
2823.91	379.953
2823.26	418.267
2822.61	414.366
2821.96	425.81
2821.3	406.566
2820.65	429.512
2820	448.617
2819.35	448.547
2818.7	413.979
2818.04	444.575
2817.39	429.178
2816.74	432.942
2816.09	386.906
2815.43	409.827
2814.78	478.695
2814.13	413.528
2813.47	401.979
2812.82	451.677
2812.17	424.816
2811.51	424.75
2810.86	470.596
2810.21	424.618
2809.55	455.15
2808.9	481.849
2808.25	443.538
2807.59	443.468
2806.94	435.755
2806.28	466.261
2805.63	431.798
2804.98	404.986
2804.32	431.663
2803.67	443.054
2803.01	481.173
2802.36	442.916
2801.7	458.118
2801.05	419.876
2800.39	473.241
2799.74	476.983
2799.08	515.061
2798.43	434.873
2797.77	442.433
2797.12	522.447
2796.46	468.985
2795.8	487.974
2795.15	510.768
2794.49	419.222
2793.84	461.072
2793.18	468.62
2792.52	487.593
2791.87	476.091
2791.21	472.209
2790.55	464.52
2789.9	479.675
2789.24	445.343
2788.58	487.137
2787.93	479.451
2787.27	498.399
2786.61	429.849
2785.95	479.226
2785.3	479.152
2784.64	467.67
2783.98	486.605
2783.32	448.519
2782.67	524.457
2782.01	501.577
2781.35	501.498
2780.69	520.413
2780.03	501.342
2779.38	512.656
2778.72	512.576
2778.06	523.885
2777.4	546.577
2776.74	546.491
2776.08	493.283
2775.42	512.176
2774.76	485.543
2774.11	542.357
2773.45	500.559
2772.79	542.188
2772.13	526.94
2771.47	473.793
2770.81	488.877
2770.15	541.849
2769.49	473.57
2768.83	553.044
2768.17	511.296
2767.51	537.724
2766.85	530.067
2766.19	492.129
2765.53	552.612
2764.87	537.388
2764.21	533.52
2763.55	590.185
2762.88	510.657
2762.22	552.18
2761.56	552.094
2760.9	483.952
2760.24	570.823
2759.58	551.835
2758.92	551.749
2758.26	525.213
2757.59	566.688
2756.93	562.822
2756.27	536.296
2755.61	539.989
2754.95	585.211
2754.28	566.245
2753.62	596.351
2752.96	569.841
2752.3	543.34
2751.63	539.482
2750.97	531.854
2750.31	592.113
2749.64	592.02
2748.98	603.239
2748.32	539.06
2747.65	489.978
2746.99	535.123
2746.33	591.557
2745.66	591.465
2745	546.172
2744.34	546.086
2743.67	557.297
2743.01	576.035
2742.34	579.709
2741.68	549.508
2741.02	541.896
2740.35	553.098
2739.69	586.87
2739.02	552.925
2738.36	597.968
2737.69	575.313
2737.03	654.175
2736.36	526.266
2735.7	529.942
2735.03	578.711
2734.37	593.649
2733.7	638.636
2733.04	567.17
2732.37	653.458
2731.7	604.542
2731.04	600.693
2730.37	615.614
2729.71	626.777
2729.04	600.41
2728.37	649.092
2727.71	622.731
2727.04	607.63
2726.37	581.283
2725.71	671.183
2725.04	641.085
2724.37	599.752
2723.71	625.893
2723.04	599.564
2722.37	591.976
2721.71	591.883
2721.04	573.063
2720.37	659.106
2719.7	625.304
2719.03	606.487
2718.37	677.512
2717.7	617.525
2717.03	651.106
2716.36	587.4
2715.69	579.826
2715.03	624.618
2714.36	594.602
2713.69	643.117
2713.02	702.831
2712.35	665.342
2711.68	680.187
2711.01	586.663
2710.34	635.14
2709.67	672.396
2709.01	593.856
2708.34	638.575
2707.67	675.813
2707	698.106
2706.33	627.077
2705.66	608.318
2704.99	641.805
2704.32	649.166
2703.65	637.874
2702.98	645.233
2702.31	663.777
2701.64	622.659
2700.96	648.657
2700.29	667.191
2699.62	663.36
2698.95	622.268
2698.28	659.426
2697.61	718.922
2696.94	703.911
2696.27	718.696
2695.6	651.565
2694.92	677.521
2694.25	714.635
2693.58	628.929
2692.91	673.481
2692.24	695.697
2691.57	688.148
2690.89	699.197
2690.22	699.087
2689.55	698.977
2688.88	758.345
2688.2	706.191
2687.53	687.499
2686.86	765.419
2686.18	717.003
2685.51	702.032
2684.84	709.35
2684.17	731.518
2683.49	686.85
2682.82	675.606
2682.14	682.923
2681.47	697.659
2680.8	693.839
2680.12	697.439
2679.45	734.422
2678.78	738.015
2678.1	760.147
2677.43	719.245
2676.75	782.149
2676.08	763.494
2675.4	722.611
2674.73	748.433
2674.05	718.679
2673.38	722.27
2672.7	711.046
2672.03	733.151
2671.35	721.929
2670.68	747.727
2670	714.3
2669.33	788.196
2668.65	754.773
2667.98	688.067
2667.3	743.439
2666.62	713.737
2665.95	650.767
2665.27	731.997
2664.59	768.845
2663.92	731.766
2663.24	846.203
2662.56	772.177
2661.89	705.562
2661.21	812.561
2660.53	716.419
2659.86	808.613
2659.18	797.41
2658.5	804.667
2657.83	815.612
2657.15	822.863
2656.47	734.188
2655.79	785.716
2655.11	804.033
2654.44	763.342
2653.76	770.596
2653.08	803.653
2652.4	825.641
2651.72	821.826
2651.05	784.849
2650.37	839.987
2649.69	880.374
2649.01	780.794
2648.33	810.131
2647.65	902.049
2646.97	806.194
2646.29	839.193
2645.61	846.42
2644.93	857.325
2644.25	860.869
2643.57	860.733
2642.9	816.464
2642.22	867.816
2641.54	838.266
2640.86	771.965
2640.18	893.133
2639.49	859.918
2638.81	841.411
2638.13	830.257
2637.45	859.511
2636.77	885.083
2636.09	833.536
2635.41	899.489
2634.73	880.993
2634.05	847.822
2633.37	833.009
2632.69	854.892
2632	862.094
2631.32	894.969
2630.64	832.483
2629.96	839.685
2629.28	868.882
2628.6	813.761
2627.91	853.947
2627.23	872.134
2626.55	835.358
2625.87	868.196
2625.18	912.011
2624.5	886.232
2623.82	882.43
2623.14	900.595
2622.45	871.17
2621.77	900.311
2621.09	896.509
2620.4	867.098
2619.72	877.935
2619.04	866.824
2618.35	844.746
2617.67	822.674
2616.98	921.249
2616.3	862.621
2615.62	888.066
2614.93	858.694
2614.25	935.28
2613.56	902.256
2612.88	854.634
2612.19	916.578
2611.51	934.688
2610.83	919.938
2610.14	901.543
2609.46	908.699
2608.77	941.395
2608.08	904.763
2607.4	977.573
2606.71	926.359
2606.03	937.152
2605.34	955.234
2604.66	889.466
2603.97	965.866
2603.28	973.001
2602.6	903.618
2601.91	877.974
2601.23	939.757
2600.54	895.905
2599.85	884.839
2599.17	902.903
2598.48	913.68
2597.79	928.094
2597.11	931.586
2596.42	949.631
2595.73	989.497
2595.04	971.153
2594.36	963.726
2593.67	876.306
2592.98	963.421
2592.29	970.538
2591.61	1010.36
2590.92	981.132
2590.23	955.544
2589.54	991.719
2588.85	991.562
2588.16	1009.56
2587.48	965.831
2586.79	1038.29
2586.1	987.303
2585.41	998.035
2584.72	990.619
2584.03	965.066
2583.34	943.148
2582.65	950.252
2581.96	982.738
2581.27	997.085
2580.58	971.551
2579.9	960.523
2579.21	945.874
2578.52	945.724
2577.83	1130.34
2577.14	1046.85
2576.44	1021.33
2575.75	999.442
2575.06	959.457
2574.37	1035.32
2573.68	995.347
2572.99	937.287
2572.3	1031.21
2571.61	1052.76
2570.92	1005.57
2570.23	1063.27
2569.54	1023.33
2568.84	1055.7
2568.15	1048.31
2567.46	1001.15
2566.77	975.699
2566.08	1091.16
2565.39	1029.58
2564.69	928.279
2564	1043.7
2563.31	1050.75
2562.62	1046.98
2561.92	1072.08
2561.23	1089.95
2560.54	1050.08
2559.85	1114.86
2559.15	1071.4
2558.46	1132.54
2557.77	1045.81
2557.07	1060.07
2556.38	1034.66
2555.69	1131.82
2554.99	1102.81
2554.3	1073.81
2553.6	1102.46
2552.91	1123.9
2552.22	1098.51
2551.52	1155.95
2550.83	1101.76
2550.13	1112.38
2549.44	1108.61
2548.74	1144.42
2548.05	1119.05
2547.35	1176.43
2546.66	1179.84
2545.96	1165.27
2545.27	1183.06
2544.57	1211.64
2543.88	1189.88
2543.18	1193.28
2542.49	1157.16
2541.79	1214.46
2541.1	1192.71
2540.4	1228.44
2539.7	1174.38
2539.01	1220.87
2538.31	1238.63
2537.61	1216.89
2536.92	1245.41
2536.22	1273.92
2535.52	1331.13
2534.83	1280.69
2534.13	1233.86
2533.43	1323.32
2532.74	1344.62
2532.04	1330.07
2531.34	1315.52
2530.64	1218.54
2529.95	1376.01
2529.25	1264.73
2528.55	1329.01
2527.85	1339.54
2527.15	1299.94
2526.46	1421.47
2525.76	1353.22
2525.06	1356.58
2524.36	1445.84
2523.66	1399.09
2522.96	1287.96
2522.26	1251.98
2521.57	1391.27
2520.87	1308.8
2520.17	1365.8
2519.47	1329.83
2518.77	1311.75
2518.07	1336.56
2517.37	1300.61
2516.67	1282.54
2515.97	1282.34
2515.27	1274.99
2514.57	1285.5
2513.87	1353.13
2513.17	1349.34
2512.47	1349.13
2511.77	1391.74
2511.07	1291.61
2510.37	1209.35
2509.66	1294.77
2508.96	1251.76
2508.26	1322.88
2507.56	1447.45
2506.86	1354.54
2506.16	1265.22
2505.46	1300.65
2504.76	1432.27
2504.05	1342.99
2503.35	1260.85
2502.65	1346.12
2501.95	1253.33
2501.25	1231.77
2500.54	1231.57
2499.84	1355.94
2499.14	1298.79
2498.44	1344.83
2497.73	1273.47
2497.03	1191.47
2496.33	1333.52
2495.62	1276.42
2494.92	1361.53
2494.22	1350.65
2493.51	1286.47
2492.81	1346.67
2492.11	1278.95
2491.4	1392.41
2490.7	1314.06
2489.99	1360.01
2489.29	1317.19
2488.59	1299.23
2487.88	1330.96
2487.18	1323.65
2486.47	1326.99
2485.77	1390.63
2485.06	1326.57
2484.36	1383.1
2483.65	1329.69
2482.95	1343.66
2482.24	1258.37
2481.54	1325.51
2480.83	1304.03
2480.13	1360.51
2479.42	1243.4
2478.71	1278.62
2478.01	1253.62
2477.3	1288.83
2476.6	1320.48
2475.89	1302.57
2475.18	1235.12
2474.48	1277.39
2473.77	1323.18
2473.06	1376.03
2472.36	1294.46
2471.65	1357.9
2470.94	1340.01
2470.24	1311.51
2469.53	1392.6
2468.82	1342.9
2468.11	1360.35
2467.41	1384.86
2466.7	1434.09
2465.99	1447.99
2465.28	1345.36
2464.57	1338.08
2463.87	1401.41
2463.16	1355.3
2462.45	1415.07
2461.74	1344.28
2461.03	1284.09
2460.32	1435.56
2459.61	1357.74
2458.9	1396.31
2458.2	1403.14
2457.49	1420.54
2456.78	1328.68
2456.07	1413.03
2455.36	1359.96
2454.65	1391.45
2453.94	1313.74
2453.23	1383.96
2452.52	1450.63
2451.81	1351.83
2451.1	1450.17
2450.39	1372.51
2449.68	1428.59
2448.97	1463.54
2448.26	1326.12
2447.55	1336.46
2446.83	1476.91
2446.12	1409.87
2445.41	1353.4
2444.7	1451.59
2443.99	1367.02
2443.28	1451.13
2442.57	1356.04
2441.85	1440.12
2441.14	1464.48
2440.43	1425.62
2439.72	1407.83
2439.01	1407.61
2438.29	1516.18
2437.58	1473.83
2436.87	1491.14
2436.16	1522.47
2435.44	1532.75
2434.73	1514.97
2434.02	1434.08
2433.3	1423.33
2432.59	1531.76
2431.88	1429.88
2431.16	1492.73
2430.45	1422.42
2429.74	1467.73
2429.02	1537.54
2428.31	1449.75
2427.6	1470.52
2426.88	1498.29
2426.17	1435.05
2425.45	1581.8
2424.74	1476.58
2424.02	1525.32
2423.31	1504.09
2422.59	1412.91
2421.88	1437.16
2421.16	1426.44
2420.45	1422.72
2419.73	1471.42
2419.02	1516.61
2418.3	1537.33
2417.59	1463.73
2416.87	1439.04
2416.16	1505.16
2415.44	1536.35
2414.72	1584.98
2414.01	1514.91
2413.29	1497.22
2412.57	1580.72
2411.86	1580.47
2411.14	1702.31
2410.42	1559.03
2409.71	1544.83
2408.99	1527.15
2408.27	1540.85
2407.56	1561.52
2406.84	1526.42
2406.12	1519.2
2405.4	1574.7
2404.69	1640.63
2403.97	1710.02
2403.25	1580.9
2402.53	1542.35
2401.81	1531.66
2401.1	1597.54
2400.38	1673.84
2399.66	1635.3
2398.94	1676.78
2398.22	1641.73
2397.5	1582.35
2396.78	1707.27
2396.06	1637.46
2395.35	1675.44
2394.63	1619.56
2393.91	1577.6
2393.19	1622.51
2392.47	1632.67
2391.75	1562.95
2391.03	1691.18
2390.31	1673.55
2389.59	1655.92
2388.87	1686.89
2388.15	1589.45
2387.43	1669
2386.71	1647.92
2385.98	1571.34
2385.26	1661.26
2384.54	1678.33
2383.82	1664.19
2383.1	1653.52
2382.38	1739.9
2381.66	1614.87
2380.94	1732.41
2380.21	1687.1
2379.49	1617.55
2378.77	1759.28
2378.05	1641.27
2377.33	1630.62
2376.6	1668.43
2375.88	1723.54
2375.16	1764.79
2374.44	1695.31
2373.71	1753.84
2372.99	1784.68
2372.27	1711.78
2371.55	1742.62
2370.82	1797.65
2370.1	1745.51
2369.38	1734.86
2368.65	1696.57
2367.93	1768.85
2367.21	1789.29
2366.48	1692.3
2365.76	1705.84
2365.03	1671.04
2364.31	1767.43
2363.58	1653.24
2362.86	1708.19
2362.14	1770.02
2361.41	1766.28
2360.69	1690.12
2359.96	1845.03
2359.24	1765.43
2358.51	1799.62
2357.79	1895.85
2357.06	1740.45
2356.33	1729.83
2355.61	1757.11
2354.88	1870.51
2354.16	1787.55
2353.43	1859.57
2352.71	1845.5
2351.98	1831.43
2351.25	1817.37
2350.53	1799.87
2349.8	1789.25
2349.07	1830.25
2348.35	1788.68
2347.62	1802.14
2346.89	1870.63
2346.17	1746.55
2345.44	1845.96
2344.71	1818.16
2343.98	1811
2343.26	1862.24
2342.53	1776.06
2341.8	1957.82
2341.07	1923.16
2340.34	1778.63
2339.62	1867.61
2338.89	1857.01
2338.16	1822.39
2337.43	1863.27
2336.7	1838.95
2335.97	1907.26
2335.24	1814.35
2334.52	1831.2
2333.79	1882.33
2333.06	1902.6
2332.33	1926.28
2331.6	1919.12
2330.87	1853.7
2330.14	1846.55
2329.41	1952.44
2328.68	1958.97
2327.95	1972.35
2327.22	1917.26
2326.49	1889.56
2325.76	1991.93
2325.03	1916.32
2324.3	1926.28
2323.57	1895.18
2322.83	2031.69
2322.1	2017.68
2321.37	1952.39
2320.64	1972.58
2319.91	2023.53
2319.18	1927.51
2318.45	2046.8
2317.71	1981.55
2316.98	2046.14
2316.25	2032.14
2315.52	2014.74
2314.79	2024.66
2314.05	2010.67
2313.32	2006.93
2312.59	2054.39
2311.86	1965.34
2311.12	2063.95
2310.39	2026.1
2309.66	1957.56
2308.92	2134.56
2308.19	1909.2
2307.46	2089.55
2306.72	2007.42
2305.99	2119.54
2305.26	1965.88
2304.52	1992.82
2303.79	1975.46
2303.05	1954.71
2302.32	1957.8
2301.59	2093.65
2300.85	2127.35
2300.12	2089.57
2299.38	2051.8
2298.65	2092.3
2297.91	2061.34
2297.18	2088.22
2296.44	2094.68
2295.71	1982.14
2294.97	2060
2294.24	2029.08
2293.5	2072.93
2292.76	2042.01
2292.03	2092.64
2291.29	2122.87
2290.56	2074.98
2289.82	2040.69
2289.08	2098.07
2288.35	2155.44
2287.61	1998.97
2286.87	2097.05
2286.14	2049.21
2285.4	2086.19
2284.66	2092.64
2283.93	2095.69
2283.19	2007.19
2282.45	2098.4
2281.71	2081.11
2280.98	2067.22
2280.24	2195.64
2279.5	2107.2
2278.76	2174.6
2278.02	2079.42
2277.29	2089.24
2276.55	2173.54
2275.81	2278.12
2275.07	2135.61
2274.33	2118.34
2273.59	2165.36
2272.85	2114.27
2272.11	2090.25
2271.37	2106.82
2270.64	2147.05
2269.9	2146.7
2269.16	2220.71
2268.42	2068.27
2267.68	2199.72
2266.94	2273.68
2266.2	2195.62
2265.46	2127.72
2264.72	2124
2263.98	2228.31
2263.23	2254.96
2262.49	2200.59
2261.75	2217.1
2261.01	2189.75
2260.27	2152.29
2259.53	2195.78
2258.79	2127.98
2258.05	2201.81
2257.31	2208.2
2256.56	2211.21
2255.82	2183.89
2255.08	2274.51
2254.34	2119.16
2253.6	2300.72
2252.85	2249.83
2252.11	2326.91
2251.37	2195.22
2250.63	2201.6
2249.88	2255.09
2249.14	2210.98
2248.4	2224.08
2247.65	2307.82
2246.91	2307.44
2246.17	2155.73
2245.42	2249.53
2244.68	2350.02
2243.94	2393.34
2243.19	2342.53
2242.45	2305.19
2241.71	2308.17
2240.96	2257.41
2240.22	2361.16
2239.47	2260.03
2238.73	2310.03
2237.98	2289.51
2237.24	2366.33
2236.49	2426.36
2235.75	2231.35
2235	2334.98
2234.26	2304.41
2233.51	2324.16
2232.77	2357.32
2232.02	2313.35
2231.28	2279.45
2230.53	2393.03
2229.78	2298.81
2229.04	2398.95
2228.29	2261.21
2227.54	2277.59
2226.8	2370.99
2226.05	2317.03
2225.3	2396.99
2224.56	2333.01
2223.81	2466.49
2223.06	2308.82
2222.32	2318.48
2221.57	2435.18
2220.82	2424.75
2220.07	2350.79
2219.33	2350.4
2218.58	2360.05
2217.83	2473.3
2217.08	2375.99
2216.33	2452.45
2215.59	2478.77
2214.84	2428.27
2214.09	2554.77
2213.34	2370.71
2212.59	2477.15
2211.84	2520.14
2211.09	2416.27
2210.34	2529.33
2209.59	2528.92
2208.84	2438.44
2208.09	2538.1
2207.35	2594.37
2206.6	2480.59
2205.85	2536.85
2205.1	2523.11
2204.35	2582.68
2203.59	2615.58
2202.84	2608.49
2202.09	2591.4
2201.34	2624.28
2200.59	2537.28
2199.84	2486.93
2199.09	2523.14
2198.34	2549.35
2197.59	2548.93
2196.84	2555.17
2196.09	2641.24
2195.33	2594.25
2194.58	2517.34
2193.83	2613.35
2193.08	2599.62
2192.33	2572.61
2191.57	2645.3
2190.82	2558.48
2190.07	2548.09
2189.32	2640.68
2188.56	2623.64
2187.81	2580.05
2187.06	2516.54
2186.3	2516.13
2185.55	2611.97
2184.8	2691.18
2184.04	2836.72
2183.29	2670.4
2182.54	2776.09
2181.78	2633.04
2181.03	2745.34
2180.27	2595.72
2179.52	2688.1
2178.77	2535.21
2178.01	2720.35
2177.26	2753.04
2176.5	2606.84
2175.75	2695.83
2174.99	2652.35
2174.24	2651.91
2173.48	2757.4
2172.73	2760.26
2171.97	2647.3
2171.22	2726.27
2170.46	2643.12
2169.7	2712.15
2168.95	2807.61
2168.19	2764.16
2167.44	2714.12
2166.68	2624.43
2165.92	2766.11
2165.17	2782.18
2164.41	2692.52
2163.65	2728.41
2162.9	2800.62
2162.14	2796.86
2161.38	2779.9
2160.62	2693.62
2159.87	2712.98
2159.11	2745.53
2158.35	2702.19
2157.59	2790.81
2156.83	2790.36
2156.08	2796.49
2155.32	2782.85
2154.56	2749.42
2153.8	2699.53
2153.04	2784.77
2152.28	2866.69
2151.53	2810.22
2150.77	2885.52
2150.01	2713.78
2149.25	2864.81
2148.49	2867.63
2147.73	2850.7
2146.97	2817.32
2146.21	2853.06
2145.45	2905.23
2144.69	2796.2
2143.93	2940.46
2143.17	2877.49
2142.41	2768.52
2141.65	2968.6
2140.89	2885.94
2140.13	2862.46
2139.37	2737.13
2138.61	2772.82
2137.85	2864.33
2137.08	2916.41
2136.32	2794.44
2135.56	2941.72
2134.8	2780.39
2134.04	2793.06
2133.28	2858.23
2132.51	2920.1
2131.75	2781.84
2130.99	2961.78
2130.23	2905.54
2129.47	2783.75
2128.7	2848.86
2127.94	2900.83
2127.18	2861.03
2126.41	2860.56
2125.65	2912.51
2124.89	2977.54
2124.12	2908.27
2123.36	2881.6
2122.6	2969.52
2121.83	2929.75
2121.07	3034.01
2120.31	2918.97
2119.54	2990.47
2118.78	2950.73
2118.01	2910.99
2117.25	2897.43
2116.48	3047.36
2115.72	3017.44
2114.95	2925.42
2114.19	2980.5
2113.42	3022.48
2112.66	3038.32
2111.89	2988.82
2111.13	3004.66
2110.36	2994.37
2109.6	3127.74
2108.83	2960.74
2108.07	2979.84
2107.3	3038.08
2106.53	3024.53
2105.77	2991.41
2105	2977.87
2104.23	3160.01
2103.47	3084.49
2102.7	3054.64
2101.93	3018.29
2101.17	3001.49
2100.4	3124.82
2099.63	3029.83
2098.86	3016.3
2098.1	2963.69
2097.33	3093.45
2096.56	3109.22
2095.79	3098.95
2095.02	3030.09
2094.26	3179.28
2093.49	3074.64
2092.72	3161.96
2091.95	3112.66
2091.18	3079.62
2090.41	3173.41
2089.64	3260.66
2088.87	3091.1
2088.11	3064.59
2087.34	3158.32
2086.57	3102.57
2085.8	3196.25
2085.03	3095.05
2084.26	3185.46
2083.49	3142.73
2082.72	3119.49
2081.95	3242.3
2081.18	3306.67
2080.41	3186.08
2079.63	3052.55
2078.86	3181.78
2078.09	3259.08
2077.32	3080.22
2076.55	3157.51
2075.78	3215.34
2075.01	3324.99
2074.24	3256.4
2073.47	3249.38
2072.69	3116.04
2071.92	3206.2
2071.15	3286.63
2070.38	3188.96
2069.6	3149.59
2068.83	3194.38
2068.06	3161.49
2067.29	3215.97
2066.51	3150.74
2065.74	3315.17
2064.97	3149.7
2064.19	3236.48
2063.42	3229.48
2062.65	3170.77
2061.87	3276.89
2061.1	3311.89
2060.33	3237.04
2059.55	3307.56
2058.78	3313.48
2058	3270.95
2057.23	3241.35
2056.46	3282.78
2055.68	3304.83
2054.91	3368.82
2054.13	3381.17
2053.36	3322.55
2052.58	3383.28
2051.81	3376.27
2051.03	3343.47
2050.26	3313.9
2049.48	3194.1
2048.7	3254.8
2047.93	3334.81
2047.15	3305.27
2046.38	3382.02
2045.6	3371.8
2044.82	3403.44
2044.05	3338.49
2043.27	3331.5
2042.49	3392.1
2041.72	3504.16
2040.94	3474.63
2040.16	3451.53
2039.38	3238.69
2038.61	3460.04
2037.83	3346.94
2037.05	3420.32
2036.27	3519.39
2035.5	3499.52
2034.72	3396.13
2033.94	3369.87
2033.16	3411.06
2032.38	3432.98
2031.6	3429.2
2030.83	3451.1
2030.05	3447.32
2029.27	3575.12
2028.49	3622.66
2027.71	3538.65
2026.93	3505.98
2026.15	3444.47
2025.37	3456.72
2024.59	3430.5
2023.81	3458.78
2023.03	3365.26
2022.25	3435.2
2021.47	3415.41
2020.69	3446.88
2019.91	3414.28
2019.13	3525.79
2018.35	3602.05
2017.57	3451
2016.79	3527.24
2016	3577.86
2015.22	3458.88
2014.44	3602.27
2013.66	3528.1
2012.88	3613.87
2012.1	3526.93
2011.31	3535.94
2010.53	3423.47
2009.75	3579.51
2008.97	3748.27
2008.19	3696.53
2007.4	3635.23
2006.62	3631.43
2005.84	3445.61
2005.05	3764.32
2004.27	3639.2
2003.49	3533.27
2002.7	3669.9
2001.92	3752.25
2001.14	3627.21
2000.35	3760.57
1999.57	3578.17
1998.79	3574.39
1998	3761.89
1997.22	3799.51
1996.43	3668.22
1995.65	3689.91
1994.86	3721.16
1994.08	3682.32
1993.29	3783.62
1992.51	3626.96
1991.72	3556.31
1990.94	3663.95
1990.15	3717.45
1989.37	3748.66
1988.58	3646.22
1987.8	3715.6
1987.01	3778.59
1986.22	3682.56
1985.44	3739.18
1984.65	3865.72
1983.86	3820.58
1983.08	3864.44
1982.29	3752.58
1981.5	3707.48
1980.72	3900.63
1979.93	3741.18
1979.14	3781.84
1978.35	3854.23
1977.57	3796.46
1976.78	3729.17
1975.99	3763.46
1975.2	3880.22
1974.42	3774.9
1973.63	3859.9
1972.84	3824.38
1972.05	3890.32
1971.26	3880.17
1970.47	3923.9
1969.68	3878.88
1968.89	3890.9
1968.11	3845.91
1967.32	3883.27
1966.53	3819.29
1965.74	3834.49
1964.95	3928.82
1964.16	3880.69
1963.37	3987.65
1962.58	3841.43
1961.79	3862.93
1961	3919.23
1960.21	3981.83
1959.42	3826.22
1958.63	3993.15
1957.83	4001.97
1957.04	3941.25
1956.25	3946.91
1955.46	4050.52
1954.67	3948.76
1953.88	3973.37
1953.09	4035.86
1952.3	3943.62
1951.5	4040.83
1950.71	3989.66
1949.92	3973.21
1949.13	3985.17
1948.33	4044.45
1947.54	4094.24
1946.75	4103.02
1945.96	4130.71
1945.16	3830.52
1944.37	3892.92
1943.58	3892.28
1942.78	4042.88
1941.99	4029.6
1941.2	4085.63
1940.4	4021.96
1939.61	4156.7
1938.81	4111.92
1938.02	4130.13
1937.23	4116.85
1936.43	4119.31
1935.64	4143.79
1934.84	4039.29
1934.05	4283.95
1933.25	3990.77
1932.46	4282.52
1931.66	4168.63
1930.87	4164.79
1930.07	4164.09
1929.28	4163.4
1928.48	4062.17
1927.68	4133.74
1926.89	4214.7
1926.09	4094.68
1925.3	4502.14
1924.5	4039.94
1923.7	4149.12
1922.91	4248.84
1922.11	4141.46
1921.31	4404.27
1920.52	4281.21
1919.72	4246
1918.92	4191.99
1918.12	4232.04
1917.33	4168.65
1916.53	4167.95
1915.73	4330.19
1914.93	4288.74
1914.13	4328.74
1913.34	4155.77
1912.54	4280.32
1911.74	4392.31
1910.94	4253.85
1910.14	4312.6
1909.34	4446.43
1908.54	4308.03
1907.74	4166.55
1906.94	4269.06
1906.14	4205.81
1905.35	4198.85
1904.55	4413.84
1903.75	4350.59
1902.95	4327.99
1902.15	4386.63
1901.35	4232.83
1900.54	4447.63
1899.74	4215.8
1898.94	4305.64
1898.14	4389.2
1897.34	4416.56
1896.54	4390.86
1895.74	4408.84
1894.94	4429.94
1894.14	4447.92
1893.33	4462.76
1892.53	4452.66
1891.73	4408.27
1890.93	4426.23
1890.13	4347.58
1889.32	4574.32
1888.52	4237.08
1887.72	4476.22
1886.92	4487.93
1886.11	4337.71
1885.31	4607.85
1884.51	4563.5
1883.7	4472.48
1882.9	4621.1
1882.1	4586.1
1881.29	4370.68
1880.49	4550.35
1879.69	4496.72
1878.88	4573.7
1878.08	4666.19
1877.27	4628.11
1876.47	4503.03
1875.66	4673.17
1874.86	4535.69
1874.06	4684.02
1873.25	4555.91
1872.45	4561.35
1871.64	4573.01
1870.83	4593.97
1870.03	4549.75
1869.22	4502.44
1868.42	4687.83
1867.61	4584.68
1866.81	4735.88
1866	4620.36
1865.19	4687.79
1864.39	4755.2
1863.58	4853.58
1862.77	4716.42
1861.97	4669.15
1861.16	4690.05
1860.35	4568.47
1859.54	4892.86
1858.74	4638.15
1857.93	4724.05
1857.12	4726.35
1856.31	4784.36
1855.51	4860.91
1854.7	4717.79
1853.89	4732.46
1853.08	4920.31
1852.27	4644.29
1851.46	4782.63
1850.66	4726.19
1849.85	4688.31
1849.04	4792.58
1848.23	4726.9
1847.42	4664.32
1846.61	4827.23
1845.8	4823.33
1844.99	4868.83
1844.18	4803.19
1843.37	4885.71
1842.56	4739.86
1841.75	4810.02
1840.94	4929.52
1840.13	4783.73
1839.32	4736.67
1838.51	5041.11
1837.7	4883.05
1836.89	4823.66
1836.07	4838.26
1835.26	4825.12
1834.45	4975.26
1833.64	4922.06
1832.83	5102.93
1832.02	4991.23
1831.2	5018.1
1830.39	4995.7
1829.58	5108.73
1828.77	5070.95
1827.95	5048.56
1827.14	5136.91
1826.33	5126.82
1825.52	5030.64
1824.7	5140.47
1823.89	5194.94
1823.08	5194.06
1822.26	5177.82
1821.45	5204.6
1820.63	5292.81
1819.82	5175.21
1819.01	5370.87
1818.19	5207.24
1817.38	5237.06
1816.56	5107.27
1815.75	5278.26
1814.93	5123.96
1814.12	5196.72
1813.3	5300.13
1812.49	5179.63
1811.67	5276.88
1810.86	5180.95
1810.04	5167.82
1809.23	5283.41
1808.41	5166.08
1807.59	5110.06
1806.78	5069.38
1805.96	5108.34
1805.15	5263.64
1804.33	5128.05
1803.51	5096.57
1802.7	5178.35
1801.88	5229.5
1801.06	5020.57
1800.24	5224.67
1799.43	4976.06
1798.61	4999.68
1797.79	5118.08
1796.97	5370.94
1796.16	5235.55
1795.34	5170.49
1794.52	5163.51
1793.7	5180.97
1792.88	5146.5
1792.06	5151.74
1791.24	5068.43
1790.43	5275.16
1789.61	5323.11
1788.79	5322.21
1787.97	5278.59
1787.15	5204.48
1786.33	5185.3
1785.51	5275.92
1784.69	5018.9
1783.87	5170.48
1783.05	5273.25
1782.23	5305.88
1781.41	5283.65
1780.59	5237.06
1779.77	5260.55
1778.95	5390.62
1778.13	5213.09
1777.3	5327.9
1776.48	5293.52
1775.66	5511.76
1774.84	5218.7
1774.02	5351.69
1773.2	5280.82
1772.37	5453.29
1771.55	5272.95
1770.73	5405.84
1769.91	5335.01
1769.08	5461.76
1768.26	5357.51
1767.44	5210.77
1766.62	5489.37
1765.79	5442.88
1764.97	5372.11
1764.15	5434.97
1763.32	5494.76
1762.5	5512.04
1761.68	5544.49
1760.85	5485.91
1760.03	5397
1759.2	5575.05
1758.38	5589.27
1757.55	5430.65
1756.73	5593.44
1755.91	5607.65
1755.08	5361.22
1754.26	5530
1753.43	5568.45
1752.6	5437.25
1751.78	5472.67
1750.95	5565.62
1750.13	5367.88
1749.3	5600.06
1748.48	5565.82
1747.65	5540.67
1746.82	5588.14
1746	5366.37
1745.17	5583.22
1744.34	5488.53
1743.52	5551.09
1742.69	5447.37
1741.86	5434.36
1741.04	5336.74
1740.21	5381.16
1739.38	5513.16
1738.55	5681.37
1737.72	5616.99
1736.9	5597.92
1736.07	5563.77
1735.24	5565.84
1734.41	5682.59
1733.58	5618.27
1732.75	5620.33
1731.93	5673.67
1731.1	5558.11
1730.27	5587.32
1729.44	5550.2
1728.61	5684.9
1727.78	5536.26
1726.95	5722.14
1726.12	5663.93
1725.29	5563.56
1724.46	5797.53
1723.63	5558.67
1722.8	5642.02
1721.97	5607.95
1721.14	5555.84
1720.31	5624.1
1719.48	5575.01
1718.65	5670.33
1717.81	5858.84
1716.98	5680.43
1716.15	5766.66
1715.32	5714.57
1714.49	5707.59
1713.66	5763.72
1712.82	5690.63
1711.99	5767.77
1711.16	5688.7
1710.33	5786.83
1709.49	5578.68
1708.66	5922.96
1707.83	5780.88
1707	5773.9
1706.16	5592.89
1705.33	5741.94
1704.5	5893.94
1703.66	5904.93
1702.83	5754
1701.99	5732.04
1701.16	5877.94
1700.33	5843.98
1699.49	5825
1698.66	5755.11
1697.82	5909.89
1696.99	5887.92
1696.15	5910.87
1695.32	6008.67
1694.48	5977.71
1693.65	5818.08
1692.81	6026.55
1691.98	6010.56
1691.14	5871.94
1690.3	5799.16
1689.47	6064.31
1688.63	5982.56
1687.8	5996.49
1686.96	5968.57
1686.12	5937.67
1685.29	5972.51
1684.45	6043.19
1683.61	5854
1682.78	6175.51
1681.94	6105.79
1681.1	5943.55
1680.26	5951.49
1679.43	6087.75
1678.59	6018.09
1677.75	6067.78
1676.91	6120.44
1676.07	6262.54
1675.23	6118.35
1674.4	6159.05
1673.56	6238.47
1672.72	6297.01
1671.88	6292.96
1671.04	6372.33
1670.2	6195.5
1669.36	6423.76
1668.52	6413.73
1667.68	6412.64
1666.84	6340.11
1666	6339.03
1665.16	6334.97
1664.32	6542.15
1663.48	6484.52
1662.64	6599.4
1661.8	6500.15
1660.96	6540.66
1660.12	6599
1659.28	6654.34
1658.44	6641.32
1657.59	6524.32
1656.75	6535.09
1655.91	6489.42
1655.07	6734.78
1654.23	6671.29
1653.38	6640.46
1652.54	6761.02
1651.7	6546.21
1650.86	6862.55
1650.01	6621.1
1649.17	6762.34
1648.33	6654.43
1647.48	6715.55
1646.64	6711.44
1645.8	6618.42
1644.95	6786.2
1644.11	6687.27
1643.27	6712.79
1642.42	6596.13
1641.58	6695.69
1640.73	6570.19
1639.89	6684.52
1639.04	6698.18
1638.2	6895.31
1637.36	6689.97
1636.51	6887.04
1635.67	6764.59
1634.82	6665.85
1633.97	6570.09
1633.13	6663.57
1632.28	6745.19
1631.44	6747
1630.59	6840.4
1629.74	6735.83
1628.9	6920.77
1628.05	6789.64
1627.2	6685.13
1626.36	6728.27
1625.51	6703.51
1624.66	6782.04
1623.82	6887.11
1622.97	6770.88
1622.12	6781.52
1621.27	6756.76
1620.43	6832.28
1619.58	6857.64
1618.73	6874.15
1617.88	6878.87
1617.03	6836.44
1616.19	6973.75
1615.34	6898.91
1614.49	6915.4
1613.64	6964.28
1612.79	6851.21
1611.94	6885.36
1611.09	7046.06
1610.24	7097.82
1609.39	7093.66
1608.54	7098.33
1607.69	7103
1606.84	7175.3
1605.99	7282.86
1605.14	7308.07
1604.29	7321.51
1603.44	7232.1
1602.59	7604.01
1601.74	7435.26
1600.89	7895.12
1600.04	7779.24
1599.18	7769.1
1598.33	7776.58
1597.48	7745.89
1596.63	7970.53
1595.78	7989.71
1594.92	8322.78
1594.07	8306.68
1593.22	8440.16
1592.37	8805.23
1591.51	8830.11
1590.66	9200.85
1589.81	9638.87
1588.96	9842.33
1588.1	10174.6
1587.25	10878.8
1586.39	11415.8
1585.54	12181
1584.69	13291.4
1583.83	14474.6
1582.98	15988.1
1582.12	18065.9
1581.27	20043.4
1580.42	22189.9
1579.56	24052
1578.71	25936.9
1577.85	27125.3
1576.99	27901.1
1576.14	28244.1
1575.28	28540.2
1574.43	27845.8
1573.57	27166.2
1572.72	25803.5
1571.86	24721.6
1571	23333.4
1570.15	22001.2
1569.29	20307.6
1568.43	18684.6
1567.58	17482.2
1566.72	15842.7
1565.86	14565.5
1565.01	13486.9
1564.15	12566.2
1563.29	11835.3
1562.43	11174.5
1561.58	10688.9
1560.72	10063.5
1559.86	9712.23
1559	9063.97
1558.14	9027.46
1557.28	9040.47
1556.42	8934.12
1555.57	8775.41
1554.71	8669.14
1553.85	8600.73
1552.99	8535.25
1552.13	8498.88
1551.27	8474.16
1550.41	8333.13
1549.55	7936.34
1548.69	8211.1
1547.83	8134.13
1546.97	7932.24
1546.11	7887.3
1545.25	7761.05
1544.39	7716.15
1543.53	7607.39
1542.66	7803.5
1541.8	7738.3
1540.94	7765.99
1540.08	7593.46
1539.22	7345.56
1538.36	7431.31
1537.49	7456.13
1536.63	7411.35
1535.77	7630.41
1534.91	7460.98
1534.04	7332.18
1533.18	7383.07
1532.32	7436.85
1531.46	7441.36
1530.59	7228.66
1529.73	7282.43
1528.87	7425.93
1528	7317.55
1527.14	7351.02
1526.27	7219.54
1525.41	7362.96
1524.55	7298.05
1523.68	7337.28
1522.82	7295.54
1521.95	7302.95
1521.09	7324.82
1520.22	7239.74
1519.36	7177.81
1518.49	7332.59
1517.63	7423.76
1516.76	7156.77
1515.89	7100.67
1515.03	7301.55
1514.16	7557.2
1513.3	7264.4
1512.43	7418.97
1511.56	7466.74
1510.7	7451.03
1509.83	7467.05
1508.96	7586.87
1508.1	7392.39
1507.23	7316.17
1506.36	7464.78
1505.49	7440.44
1504.63	7626.43
1503.76	7400.42
1502.89	7289.7
1502.02	7438.18
1501.15	7434.02
1500.29	7467.28
1499.42	7630.05
1498.55	7525.13
1497.68	7267.77
1496.81	7582.95
1495.94	7561.5
1495.07	7445.17
1494.2	7602.02
1493.33	7623.71
1492.46	7478.68
1491.59	7543.48
1490.72	7415.76
1489.85	7612.69
1488.98	7634.36
1488.11	7454.99
1487.24	7551.33
1486.37	7521.31
1485.5	7508.53
1484.63	7564.63
1483.76	7482.98
1482.88	7648.08
1482.01	7623.81
1481.14	7648.3
1480.27	7583.9
1479.4	7737.39
1478.53	7635.74
1477.65	7866.54
1476.78	7816.48
1475.91	7777.88
1475.03	7762.21
1474.16	7729.37
1473.29	7613.5
1472.42	7738.15
1471.54	7785.47
1470.67	7706.85
1469.79	7708.38
1468.92	7787.15
1468.05	7679.97
1467.17	7558.53
1466.3	7791.69
1465.42	7750.31
1464.55	7668.94
1463.67	7659.04
1462.8	7640.57
1461.92	7650.67
1461.05	7675.06
1460.17	7665.16
1459.3	7586.74
1458.42	7574
1457.55	7604.09
1456.67	7668.41
1455.79	7832.58
1454.92	7802.7
1454.04	7812.76
1453.17	7971.11
1452.29	7530.61
1451.41	7822.95
1450.53	7576.46
1449.66	7592.24
1448.78	7844.53
1447.9	7834.62
1447.02	7628.18
1446.15	7772.1
1445.27	7648.31
1444.39	7715.31
1443.51	7753.83
1442.63	7681.33
1441.76	7691.38
1440.88	7883.51
1440	7845.17
1439.12	7957.57
1438.24	7839.6
1437.36	7832.56
1436.48	7836.88
1435.6	7701.95
1434.72	7771.65
1433.84	7864.06
1432.96	7925.18
1432.08	7889.73
1431.2	7939.47
1430.32	7691.09
1429.44	7950.91
1428.56	7875.74
1427.68	7800.59
1426.8	7802.08
1425.91	7800.72
1425.03	7827.73
1424.15	7970.99
1423.27	7805.17
1422.39	8053.26
1421.51	7805.29
1420.62	7962.62
1419.74	8068.9
1418.86	7957.02
1417.98	8100.08
1417.09	8101.51
1416.21	8034.98
1415.33	7931.68
1414.44	7834.07
1413.56	8044.94
1412.68	8114.28
1411.79	8059.12
1410.91	7972.87
1410.02	8098.74
1409.14	8018.16
1408.26	7875.43
1407.37	8074.73
1406.49	7937.69
1405.6	7992.81
1404.72	8064.87
1403.83	8148.2
1402.95	8191.96
1402.06	8046.55
1401.18	8090.31
1400.29	8201.8
1399.4	8104.43
1398.52	8046.59
1397.63	8141.1
1396.75	8235.58
1395.86	8152.37
1394.97	8243.99
1394.08	8191.82
1393.2	8328.49
1392.31	8248.14
1391.42	8319.96
1390.54	8197.38
1389.65	8195.96
1388.76	8146.66
1387.87	8280.38
1386.98	8309.91
1386.1	8297.2
1385.21	8155.06
1384.32	8277.43
1383.43	8090.33
1382.54	8299.86
1381.65	8323.72
1380.76	8128.28
1379.87	8393.91
1378.98	8265.97
1378.09	8166.18
1377.21	8235
1376.32	8225.14
1375.43	8279.88
1374.53	8202.61
1373.64	8145.03
1372.75	8199.75
1371.86	8327.43
1370.97	8171.64
1370.08	8321.72
1369.19	8196.84
1368.3	8268.34
1367.41	8311.76
1366.52	8400.03
1365.62	8322.88
1364.73	8371.88
1363.84	8300.36
1362.95	8130.81
1362.05	8445.93
1361.16	8377.24
1360.27	8403.78
1359.38	8273.52
1358.48	8255.29
1357.59	8379.79
1356.7	8389.52
1355.8	8371.27
1354.91	8176.79
1354.02	8264.87
1353.12	8355.71
1352.23	8424.14
1351.33	8503.74
1350.44	8373.69
1349.54	8394.58
1348.65	8191.95
1347.75	8349.75
1346.86	8328.74
1345.96	8494.84
1345.07	8535.23
1344.17	8352.29
1343.28	8557.37
1342.38	8525.18
1341.49	8320.01
1340.59	8268.35
1339.69	8417.52
1338.8	8382.58
1337.9	8202.68
1337	8496.73
1336.11	8411.63
1335.21	8468.68
1334.31	8355.75
1333.41	8404.44
1332.52	8241.43
1331.62	8398.71
1330.72	8452.93
1329.82	8454.24
1328.92	8302.46
1328.03	8378.93
1327.13	8360.77
1326.23	8392.69
1325.33	8508.03
1324.43	8289.64
1323.53	8502.28
1322.63	8431.29
1321.73	8563.23
1320.83	8458.91
1319.93	8510.22
1319.03	8403.17
1318.13	8418.36
1317.23	8547.41
1316.33	8401.53
1315.43	8491.67
1314.53	8376.39
1313.63	8383.25
1312.73	8576
1311.83	8460.76
1310.93	8439.86
1310.03	8430.07
1309.12	8453.54
1308.22	8335.63
1307.32	8295.37
1306.42	8518.38
1305.52	8442.08
1304.61	8615.12
1303.71	8414.19
1302.81	8686.87
1301.9	8793.32
1301	8800.09
1300.1	8740.42
1299.19	8611.6
1298.29	8698.62
1297.39	8766.26
1296.48	8875.35
1295.58	8815.72
1294.68	8703.59
1293.77	8663.36
1292.87	8797.27
1291.96	8544.26
1291.06	8523.42
1290.15	8516.4
1289.25	8559.1
1288.34	8596.26
1287.44	8492.59
1286.53	8485.58
1285.62	8517.21
1284.72	8427.42
1283.81	8574.92
1282.91	8584.45
1282	8467.11
1281.09	8537.32
1280.19	8599.23
1279.28	8553.62
1278.37	8574.17
1277.46	8558.88
1276.56	8386.56
1275.65	8696.36
1274.74	8557.13
1273.83	8572.15
1272.93	8738.59
1272.02	8640.71
1271.11	8829.09
1270.2	8835.8
1269.29	8993.82
1268.38	8989.49
1267.47	8957.65
1266.57	9038.57
1265.66	8982
1264.75	8972.17
1263.84	9039.31
1262.93	9095.42
1262.02	9203.72
1261.11	9380.65
1260.2	9365.27
1259.29	9089.03
1258.38	9205.48
1257.47	9360.33
1256.55	9276.35
1255.64	9068.92
1254.73	9053.6
1253.82	9150.76
1252.91	9121.73
1252	9037.86
1251.09	9008.85
1250.17	9020.97
1249.26	8994.72
1248.35	8773.93
1247.44	8901.15
1246.52	8817.41
1245.61	8955.53
1244.7	8869.07
1243.78	8826.44
1242.87	8824.89
1241.96	8889.02
1241.04	8764.32
1240.13	8683.44
1239.22	8848.76
1238.3	8642.09
1237.39	8848.38
1236.47	8956.18
1235.56	8984.67
1234.64	8709.79
1233.73	8648.15
1232.81	8753.17
1231.9	8860.89
1230.98	8837.48
1230.07	8816.81
1229.15	9009.08
1228.24	9048.44
1227.32	8866.73
1226.4	8843.34
1225.49	8689
1224.57	8772.03
1223.65	8800.48
1222.74	8902.54
1221.82	8666.52
1220.9	8989.35
1219.99	8985.04
1219.07	8833.6
1218.15	8853.83
1217.23	8653.43
1216.31	8932.41
1215.4	8990.73
1214.48	8929.26
1213.56	8878.69
1212.64	8713.84
1211.72	8938.14
1210.8	8980.08
1209.88	9005.7
1208.96	8933.4
1208.05	8765.97
1207.13	9019.96
1206.21	8906.93
1205.29	9016.78
1204.37	8873.9
1203.45	8983.71
1202.53	8857.19
1201.6	8790.45
1200.68	8965.38
1199.76	9034.38
1198.84	9035.49
1197.92	9128.88
1197	9054.01
1196.08	9076.82
1195.16	9042.67
1194.23	9111.58
1193.31	9435.33
1192.39	9493.3
1191.47	9399.47
1190.54	9831.39
1189.62	9894.67
1188.7	10266.8
1187.78	10725.4
1186.85	10988.9
1185.93	11628.6
1185.01	11994.7
1184.08	12593.4
1183.16	12861.8
1182.23	12770.2
1181.31	13079
1180.39	12846.8
1179.46	12709.4
1178.54	12420.5
1177.61	12115.6
1176.69	11816.1
1175.76	11489.8
1174.84	10817.7
1173.91	10459.2
1172.98	10208.9
1172.06	9764.27
1171.13	9551.95
1170.21	9345.11
1169.28	9386.64
1168.35	9220.38
1167.43	9243.03
1166.5	9405.93
1165.57	9175.03
1164.65	9356.76
1163.72	9098.99
1162.79	9485.53
1161.86	9292.5
1160.94	9242.35
1160.01	9181.45
1159.08	9279.48
1158.15	9345.17
1157.22	9383.9
1156.29	9363.39
1155.37	9380.58
1154.44	9421.97
1153.51	9213.12
1152.58	9456.3
1151.65	9457.31
1150.72	9595.48
1149.79	9475.47
1148.86	9629.72
1147.93	9673.7
1147	9639.74
1146.07	9393.52
1145.14	9735.72
1144.21	9669.53
1143.28	9845.06
1142.35	9846
1141.41	9946.26
1140.48	9947.18
1139.55	9948.1
1138.62	10115.4
1137.69	10025.1
1136.76	9926.71
1135.82	10107.3
1134.89	10435.3
1133.96	10296.7
1133.03	10359.2
1132.09	10585.2
1131.16	10663.7
1130.23	10750.2
1129.29	10975.9
1128.36	10909.7
1127.43	10953.3
1126.49	10978.1
1125.56	11155.5
1124.62	11273.9
1123.69	11411.1
1122.75	11449.2
1121.82	11487.2
1120.89	11605.5
1119.95	11967.1
1119.01	12229.6
1118.08	12304.9
1117.14	12193.2
1116.21	12295.2
1115.27	12509.4
1114.34	12432.4
1113.4	12614.4
1112.46	12612.2
1111.53	12772.8
1110.59	12885.3
1109.65	13171.2
1108.72	13384.9
1107.78	13555.9
1106.84	13638.9
1105.9	13863.1
1104.97	14148.6
1104.03	14343.3
1103.09	14799.1
1102.15	15070.9
1101.21	15230.8
1100.28	15590.3
1099.34	15984.4
1098.4	16519.4
1097.46	16497.8
1096.52	17117.7
1095.58	17149.3
1094.64	17356.4
1093.7	17393.2
1092.76	17299.7
1091.82	17567.9
1090.88	17782.8
1089.94	17994.9
1089	19209.1
1088.06	20414.8
1087.12	22693.6
1086.18	25011.3
1085.24	28297.8
1084.29	32127.4
1083.35	35961
1082.41	40133
1081.47	43687.7
1080.53	47071.4
1079.58	49578.3
1078.64	50577.5
1077.7	50454.4
1076.76	50153.7
1075.81	48458.5
1074.87	46215.2
1073.93	43752.7
1072.98	40278.8
1072.04	37240.7
1071.1	33599.6
1070.15	29650
1069.21	26202.3
1068.26	23452.1
1067.32	20954.3
1066.38	19095.3
1065.43	17038.5
1064.49	16006.3
1063.54	15149.1
1062.6	14292.1
1061.65	13652.3
1060.7	13121.1
1059.76	12936.4
1058.81	12809.8
1057.87	12199.8
1056.92	11946.7
1055.97	11677.7
1055.03	11585.9
1054.08	11541.5
1053.13	11288.7
1052.19	10898.7
1051.24	11094.6
1050.29	10802.4
1049.34	10850.6
1048.4	10954.2
1047.45	10804.5
1046.5	10457.2
1045.55	10331.4
1044.6	10601.1
1043.65	10485.8
1042.71	10497.1
1041.76	10289.8
1040.81	10177.3
1039.86	10215
1038.91	10052.6
1037.96	10127.1
1037.01	10222.7
1036.06	10094.6
1035.11	10048
1034.16	10033.1
1033.21	9989.19
1032.26	10013.7
1031.31	9938.3
1030.36	9944.4
1029.4	10066.2
1028.45	9911.94
1027.5	9981.1
1026.55	10018.7
1025.6	9904
1024.65	9952.11
1023.69	9895.2
1022.74	9935.43
1021.79	9836.54
1020.84	9879.39
1019.88	9885.49
1018.93	9763.06
1017.98	10021
1017.02	10100.4
1016.07	10193
1015.12	10411.4
1014.16	10579.9
1013.21	10588.4
1012.25	10568.2
1011.3	10568.9
1010.34	10383.7
1009.39	10285
1008.43	10147
1007.48	9959.35
1006.52	9988.97
1005.57	9892.98
1004.61	9974.92
1003.66	9758.66
1002.7	9913.81
1001.74	10055.8
1000.79	9748.18
999.832	9822.23
998.875	9828.31
997.919	9980.7
996.962	9926.67
996.004	9896.16
995.047	9724.64
994.089	9957.88
993.132	9830.79
992.174	9831.64
991.216	9595.02
990.258	9825.5
989.299	9826.35
988.341	9892.39
987.382	9791.53
986.423	9844.52
985.464	9863.61
984.505	9937.42
983.545	9896.55
982.586	10051.1
981.626	9739.31
980.666	9792.26
979.706	9884.24
978.746	9791.34
977.785	9641.22
976.824	9959.59
975.864	9801.68
974.903	9784.31
973.941	9766.95
972.98	9962.84
972.019	10044.3
971.057	9904.67
970.095	9895.09
969.133	9927.09
968.171	10094.2
967.209	9954.7
966.246	10004.9
965.283	10171.9
964.32	9972.7
963.357	10048.8
962.394	10085.9
961.431	10117.8
960.467	10058.9
959.503	10147.9
958.54	9954.16
957.575	10279.1
956.611	9992.07
955.647	10112.1
954.682	10169.9
953.717	9963.35
952.752	10049.6
951.787	9957.18
950.822	10095.2
949.857	10041.6
948.891	10055.4
947.925	10048.4
946.959	10225.1
945.993	10295.7
945.026	10234.4
944.06	10380
943.093	10269.5
942.126	10267.6
941.159	10227
940.192	10328.6
939.225	10104.5
938.257	10177.6
937.289	10217.1
936.322	9894.96
935.353	10071.4
934.385	10103.1
933.417	10189.1
932.448	10306
931.479	10198.3
930.51	10170.7
929.541	10148.2
928.572	10197.9
927.602	10211.6
926.633	10080.8
925.663	10115.1
924.693	9938.01
923.723	10054.8
922.752	10271.9
921.782	10161.9
920.811	10095.7
919.84	10132.5
918.869	10261.9
917.898	10409.4
916.926	10317.4
915.955	10264.1
914.983	10092.5
914.011	10237.3
913.039	10258.6
912.067	10099.9
911.094	10206
910.122	10235
909.149	10045.6
908.176	10154.2
907.203	10301.4
906.229	10184
905.256	10102.5
904.282	10108.4
903.308	10234.9
902.334	10284.4
901.36	10097.8
900.386	10321.7
899.411	10245.5
898.436	10125.7
897.461	10323.8
896.486	10052.8
895.511	10163.7
894.536	10423.3
893.56	10175.4
892.584	10486.2
891.608	10351.1
890.632	10234
889.656	10165.5
888.679	10335.2
887.702	10451.1
886.726	10405.7
885.748	10472.9
884.771	10481.2
883.794	10354
882.816	10324
881.839	10253.1
880.861	10453.2
879.882	10367
878.904	10423.9
877.926	10429.7
876.947	10361.4
875.968	10318.6
874.989	10457.2
874.01	10618.7
873.031	10524.9
872.051	10602.1
871.072	10314.4
870.092	10480.9
869.112	10616.8
868.131	10418.4
867.151	10590
866.17	10391.7
865.19	10502
864.209	10372.7
863.228	10694.4
862.246	10544.7
861.265	10517.3
860.283	10512.9
859.301	10600.1
858.319	10603.3
857.337	10471.5
856.355	10584.1
855.372	10490.6
854.389	10783.8
853.407	10692.8
852.424	10624.8
851.44	10467.8
850.457	10636.2
849.473	10626.6
848.489	10761.9
847.505	10881.9
846.521	10552.3
845.537	10522.4
844.552	10507.8
843.568	10749.6
842.583	10790.8
841.598	11027.5
840.613	10850.4
839.627	10845.9
838.642	10803.3
837.656	10770.9
836.67	11032.7
835.684	10934.3
834.698	10962.8
833.711	10950.6
832.724	11169.1
831.738	11088.5
830.751	11114.4
829.763	11018.7
828.776	11074.9
827.789	11252.6
826.801	11124
825.813	11076.5
824.825	11183.2
823.837	11254.6
822.848	11060.3
821.859	11053.2
820.871	11124.5
819.882	11127.6
818.892	11203.9
817.903	11088.2
816.914	11346.4
815.924	11021
814.934	11180.6
813.944	11145.8
812.954	10828.1
811.963	11063.5
810.973	11122
809.982	11084.7
808.991	11001.9
808	11093.2
807.008	11240
806.017	10892.5
805.025	11120
804.033	10997
803.041	10962.2
802.049	10778.8
801.057	10880.1
800.064	10941.1
799.071	10808.2
798.078	10844
797.085	10952.7
796.092	10905.4
795.099	10895.9
794.105	10800.8
793.111	11178.7
792.117	10998.1
791.123	10890.5
790.128	10931.3
789.134	10974.5
788.139	11095.7
787.144	11038.4
786.149	11194.6
785.154	10976.6
784.158	11215.6
783.162	11002.7
782.167	11096.1
781.171	11038.8
780.174	11252.6
779.178	11172.8
778.181	10967.6
777.185	11008.2
776.188	11104
775.191	11222.3
774.193	11283
773.196	11376.1
772.198	11168.6
771.2	10913.5
770.202	11412.5
769.204	11285.2
768.206	11353.3
767.207	11058.3
766.208	11213.9
765.209	11347
764.21	11007.2
763.211	11407.9
762.212	11260.8
761.212	11436.3
760.212	11599.2
759.212	11202.1
758.212	11427.5
757.211	11502.9
756.211	11700.7
755.21	11853.4
754.209	12183.5
753.208	12361
752.207	12948
751.205	13549.7
750.203	14420.8
749.202	15309
748.2	16386.5
747.197	17393.8
746.195	18505.4
745.192	19175.3
744.19	20423.3
743.187	20933
742.183	20961.6
741.18	20514.3
740.177	19825.4
739.173	18735.8
738.169	17265.6
737.165	16209.2
736.161	15305
735.156	13808.9
734.152	13231.5
733.147	12666.8
732.142	12191.8
731.137	12013
730.131	11742.2
729.126	11645.6
728.12	11747.9
727.114	11656.2
726.108	11405.6
725.102	11458.2
724.095	11416.3
723.089	11506.1
722.082	11536.3
721.075	11407.6
720.068	11745.6
719.06	11517.6
718.053	11619.7
717.045	11687
716.037	11655.1
715.029	12173.8
714.021	12040.1
713.012	12300.7
712.004	12164.6
710.995	12115.3
709.986	12103.1
708.977	12261.9
707.967	12259.7
706.958	12262.4
705.948	11968
704.938	12230.7
703.928	12178.9
702.917	11983.7
701.907	12095.3
700.896	11863.1
699.885	11826.3
698.874	11851.3
697.863	12037
696.851	11765.4
695.84	12030.1
694.828	11815.4
693.816	11687.3
692.804	11796.3
691.791	11828.7
690.779	11594.4
689.766	11693.5
688.753	11674.1
687.74	11528.8
686.727	11667.3
685.713	11519.7
684.7	11677.8
683.686	11653.5
682.672	11705.6
681.658	11624.6
680.643	11523.9
679.629	11645
678.614	11657.6
677.599	11601.3
676.584	11742
675.568	11592.1
674.553	11582.6
673.537	11683.8
672.521	11908.1
671.505	11701.7
670.489	11539.6
669.472	11574.4
668.456	11884.6
667.439	11911.9
666.422	11663.9
665.405	11902.6
664.387	11686.6
663.37	11694.3
662.352	11706.9
661.334	11861.9
660.316	11899
659.297	11705.3
658.279	11776.8
657.26	11666.7
656.241	11691.5
655.222	11804.7
654.203	11586.7
653.183	11807.7
652.164	12053.2
651.144	11764.1
650.124	11999.7
649.104	11647.1
648.083	12000.2
647.063	11865.7
646.042	11851.3
645.021	11787.9
644	11986.5
642.978	11991.6
641.957	11793.6
640.935	12001.9
639.913	11989.9
638.891	11946.1
637.869	12022.1
636.846	12103
635.824	12687.5
634.801	13464.9
633.778	14591.4
632.755	15930
631.731	16838.3
630.708	17255.3
629.684	16558.6
628.66	15710.8
627.636	14506.9
626.611	13589
625.587	13039.9
624.562	12395.9
623.537	12481.4
622.512	12225.5
621.487	12106.2
620.461	12094.2
619.436	12301.6
618.41	12060.5
617.384	12226.4
616.357	12251
615.331	12117.2
614.304	12265.9
613.277	12168.7
612.25	12212.7
611.223	12081.5
610.196	12208.2
609.168	12081.9
608.141	11982.3
607.113	12199
606.084	12274.6
605.056	12124
604.028	12248.2
602.999	12209.4
601.97	12090.6
600.941	12098
599.912	11967.1
598.882	12324.3
597.852	12268.6
596.823	12276
595.793	12174.3
594.762	12087.1
593.732	12354.1
592.701	12155.4
591.671	12073.1
590.64	12262.4
589.608	12218.9
588.577	12400.9
587.545	12170.8
586.514	12507.8
585.482	12243.8
584.45	12132.6
583.417	12164.2
582.385	12254
581.352	12196
580.319	12285.8
579.286	12334.3
578.253	12208.6
577.219	12259.6
576.186	12310.5
575.152	12310.7
574.118	12528.4
573.083	12579.3
572.049	12526.2
571.014	12821.1
569.98	12630.3
568.945	12719.7
567.909	12809.1
566.874	12809.2
565.838	12707.8
564.803	12864.8
563.767	12799.6
562.73	12879.3
561.694	13033.7
560.658	12913.1
559.621	13096.4
558.584	13038.5
557.547	13069.9
556.509	12790.3
555.472	13026.5
554.434	13021.6
553.396	13151.7
552.358	13060.2
551.32	13072.2
550.282	13137.2
549.243	13154
548.204	13192.5
547.165	13074.5
546.126	13081.7
545.086	12999.9
544.047	12983.1
543.007	13110.5
541.967	12932.6
540.927	12997.5
539.886	12692.3
538.846	12622.7
537.805	12752.5
536.764	12733.3
535.723	12788.6
534.681	12908.6
533.64	12805.4
532.598	13021.4
531.556	12779.1
530.514	12851.1
529.472	12896.7
528.429	12841.5
527.387	12875.1
526.344	12879.9
525.301	12982.9
524.257	12788.8
523.214	12729
522.17	12982.9
521.126	13049.9
520.082	12851.2
519.038	12858.4
517.993	12731.5
516.949	12927.8
515.904	12748.3
514.859	12824.9
513.814	12734
512.768	12803.4
511.723	12801
510.677	13030.5
509.631	12846.4
508.585	13008.9
507.538	12946.8
506.492	12937.2
505.445	13056.6
504.398	12872.7
503.351	12846.4
502.303	13015.9
501.256	12858.3
500.208	12941.9
499.16	12636.5
498.112	12739.1
497.063	12469.6
496.015	12660.4
494.966	12774.9
493.917	12698.6
492.868	12548.5
491.819	12886.9
490.769	12763
489.72	12944
488.67	12627.3
487.62	13013
486.569	12936.8
485.519	12962.9
484.468	12755.9
483.417	12870.1
482.366	12698.8
481.315	12722.6
480.263	12480.1
479.212	12670.3
478.16	12710.7
477.108	12627.6
476.055	12915.1
475.003	12786.7
473.95	12596.7
472.897	12653.8
471.844	12587.3
470.791	12907.8
469.738	12834.2
468.684	12442.6
467.63	12936.1
466.576	12774.8
465.522	12902.9
464.468	12860.1
463.413	12857.7
462.358	12767.6
461.303	12860.1
460.248	13099.3
459.193	12810.2
458.137	13070.7
457.081	12947.5
456.025	13049.3
454.969	13091.8
453.913	13276.3
452.856	13337.7
451.799	13429.9
450.742	13446.3
449.685	13543.1
448.628	13405.8
447.57	13448.2
446.512	13578.1
445.454	13481
444.396	13636.8
443.338	13773.6
442.279	13834.8
441.221	13702.3
440.162	13680.9
439.102	13895.5
438.043	13616.8
436.983	13942.2
435.924	13677.7
434.864	13774.2
433.804	13710.4
432.743	13745.5
431.683	13733.5
430.622	13740.4
429.561	13648.3
428.5	13744.7
427.439	13763.3
426.377	13586.4
425.315	13741.7
424.253	13854.5
423.191	13722.4
422.129	13616.3
421.066	13672.6
420.004	13994.6
418.941	13921.5
417.878	13864.8
416.814	13756.4
415.751	13796.1
414.687	13965.1
413.623	14018.9
412.559	14107.9
411.495	14164
410.43	14144.9
409.365	14231.4
408.301	14163
407.235	14543
406.17	14242.2
405.105	14241.9
404.039	14124.3
402.973	14105.2
401.907	14306.6
400.84	14264.1
399.774	14296.5
398.707	14153.2
397.64	13932.7
396.573	13894.9
395.506	13686.2
394.438	13746.9
393.371	13795.8
392.303	13683.2
391.235	13739.1
390.166	13638.3
389.098	13495.3
388.029	13623.8
386.96	13569.8
385.891	13569.6
384.822	13786.8
383.752	13632.3
382.682	13655.4
381.613	13608.5
380.542	13496.1
379.472	13376.8
378.402	13797
377.331	13392.8
376.26	13406.6
375.189	13401.8
374.117	13445.9
373.046	13529.7
371.974	13326.6
370.902	13517.6
369.83	13480.1
368.758	13424
367.685	13465.7
366.613	13654.3
365.54	13654.1
364.466	13611.9
363.393	13541.8
362.32	13415.8
361.246	13611.2
360.172	13608.7
359.098	13594.5
358.023	13491.8
356.949	13303.2
355.874	13549.6
354.799	13416.8
353.724	13595.6
352.649	13583.8
351.573	13616.1
350.497	13578.7
349.421	13629.6
348.345	13457.4
347.269	13503.7
346.192	13758.9
345.115	13584.5
344.038	13751.4
342.961	13837
341.884	13776.4
340.806	13771.5
339.728	13845.4
338.65	13879.9
337.572	14062.8
336.494	13930.3
335.415	13932.3
334.336	14203.2
333.257	14036
332.178	14137.6
331.099	14130.3
330.019	14065.1
328.939	14282.4
327.859	14238
326.779	14533.9
325.699	14450.2
324.618	14597.8
323.537	14794
322.456	14594.7
321.375	14813.9
320.293	14723.2
319.212	14769
318.13	14962.6
317.048	15082.3
315.966	15148.7
314.883	14958.8
313.8	15089.9
312.718	14943.9
311.634	15031.1
310.551	15196.7
309.468	15242.3
308.384	14824.2
307.3	15019.8
306.216	14871.7
305.132	14767.4
304.047	15066.6
302.962	14856.3
301.877	14782.1
300.792	14742.4
299.707	14762.7
298.621	14554.9
297.536	14676.5
296.45	14708.3
295.364	14562.8
294.277	14626.8
293.191	14824.2
292.104	14545.4
291.017	14634.6
289.93	14944.6
288.842	14700.3
287.755	14881.5
286.667	14538.5
285.579	14846
284.491	14677.8
283.402	14870.2
282.314	14828.4
281.225	14905.9
280.136	14792.9
279.047	15035.7
277.957	14828.6
276.867	14860.2
275.778	15137.3
274.688	14978.5
273.597	15058.2
272.507	15062.2
271.416	15247.3
270.325	14964.8
269.234	15319.5
268.143	15211.2
267.051	15139.6
265.96	15265
264.868	15280.4
263.776	15346.2
262.683	15201.4
261.591	15271.7
260.498	15200.2
259.405	15302.5
258.312	15247
257.218	15488.8
256.125	15197.8
255.031	15165.2
253.937	15189.8
252.843	15310.3
251.748	15117.8
250.654	15137.8
249.559	14977.3
248.464	14839.8
247.369	14942
246.273	14747.5
245.178	14582.7
244.082	14769.2
242.986	14531.5
241.889	14323.5
240.793	14439.4
239.696	14261.1
238.599	14244.7
237.502	14119
236.405	14088.9
235.307	14136.4
234.21	14256.7
233.112	14272.2
232.014	14151.1
230.915	13980
229.817	13995.5
228.718	14227.2
227.619	14381.5
226.52	14121.8
225.42	14212.3
224.321	14152.8
223.221	14379.7
222.121	14277
221.021	14231.1
219.92	14310.2
218.82	14100.7
217.719	14497.8
216.618	14420.1
215.516	14644.3
214.415	14453.2
213.313	14677.4
212.211	14599.7
211.109	14787.5
210.007	14653.1
208.904	14729.7
207.802	14853.9
206.699	14848.8
205.595	14807.4
204.492	14802.3
203.389	14969.4
202.285	14871.5
201.181	14984.1
200.077	14967.7
198.972	14853.9
197.867	14977.8
196.763	15171.8
195.658	14981.2
194.552	15073.3
193.447	15432.3
192.341	15406.8
191.235	15333.8
190.129	15186.2
189.023	15490.6
187.916	15503.5
186.81	15222.7
185.703	15386.9
184.595	15693.3
183.488	15627.1
182.381	15673.8
181.273	15948.4
180.165	15866.4
179.057	15761.9
177.948	15986.7
176.839	15997.2
175.731	16354.9
174.622	16611
173.512	16574
172.403	16843.5
171.293	16982.2
170.183	16924.9
169.073	17016.3
167.963	16920.7
166.852	17039.1
165.742	17026.8
164.631	16764.8
163.519	17020.3
162.408	16670.7
161.296	16636
160.185	16475.4
159.073	16571.2
157.96	16658
156.848	16605.3
155.735	16474.1
154.622	16608
153.509	16553.2
152.396	16687
151.282	17276.5
150.169	17282.2
149.055	17067.9
147.941	17338.4
146.826	17629
145.712	17829.8
144.597	17862.3
143.482	17755.7
142.367	18220.8
141.251	18275.6
140.136	18751.7
139.02	18521.8
137.904	19078.3
136.788	19343.4
135.671	19462.9
134.554	19474.8
133.437	19659.1
132.32	19953
131.203	20038.7
130.085	20233.9
128.968	20681.9
127.85	20836.7
126.732	20810.4
125.613	21179.7
124.494	21575.7
123.376	21627.4
122.257	22226.5
121.137	22329.4
120.018	22818.7
118.898	23028.7
117.778	23539.9
116.658	23921.6
115.538	24113.3
114.417	24624.1
113.296	25105.7
112.176	24779.7
111.054	25361.4
109.933	25383.3
108.811	25289.3
107.689	25197.5
106.567	25286.3
105.445	24913.9
104.323	24506
103.2	24316.5
102.077	24078.1
100.954	23977.7
