4001.37	26.2382
4000.9	10.4953
4000.42	41.9751
3999.94	36.723
3999.47	10.4908
3998.99	10.4893
3998.51	20.9756
3998.04	15.7295
3997.56	36.6969
3997.08	26.2083
3996.6	15.7228
3996.13	52.4017
3995.65	26.1971
3995.17	10.4774
3994.7	26.1897
3994.22	15.7116
3993.74	41.8916
3993.26	20.9428
3992.79	41.8796
3992.31	31.4053
3991.83	-20.9339
3991.35	26.1636
3990.88	26.1599
3990.4	0
3989.92	10.461
3989.44	-10.4595
3988.96	5.229
3988.49	-5.22825
3988.01	41.8201
3987.53	26.1338
3987.05	10.452
3986.57	31.3517
3986.09	-10.4491
3985.61	15.6714
3985.14	5.22305
3984.66	15.6669
3984.18	36.5509
3983.7	26.1041
3983.22	26.1004
3982.74	26.0966
3982.26	10.4372
3981.78	15.6535
3981.3	41.7368
3980.83	36.5145
3980.35	10.4312
3979.87	10.4297
3979.39	20.8565
3978.91	26.0669
3978.43	10.4253
3977.95	15.6357
3977.47	15.6335
3976.99	5.21041
3976.51	0
3976.03	26.0446
3975.55	5.20819
3975.07	15.6223
3974.59	10.4134
3974.11	5.20596
3973.63	5.20522
3973.15	26.0224
3972.67	10.4075
3972.19	15.609
3971.71	31.2135
3971.23	15.6045
3970.74	46.8069
3970.26	46.8002
3969.78	20.7971
3969.3	20.7942
3968.82	0
3968.34	-5.19706
3967.86	0
3967.38	25.9779
3966.9	0
3966.42	10.3882
3965.93	5.19336
3965.45	25.9631
3964.97	20.7675
3964.49	15.5734
3964.01	15.5712
3963.53	10.3793
3963.04	41.5113
3962.56	5.18818
3962.08	31.1246
3961.6	0
3961.12	20.7438
3960.63	46.667
3960.15	46.6603
3959.67	46.6537
3959.19	20.732
3958.71	5.18226
3958.22	46.6337
3957.74	25.9039
3957.26	25.9002
3956.77	31.0758
3956.29	25.8928
3955.81	15.5335
3955.33	15.5313
3954.84	36.2344
3954.36	0
3953.88	25.8744
3953.39	10.3483
3952.91	-15.5202
3952.43	25.8633
3951.94	-5.17192
3951.46	15.5135
3950.98	20.6818
3950.49	25.8485
3950.01	0
3949.53	20.6729
3949.04	31.0049
3948.56	20.667
3948.07	36.1621
3947.59	25.8264
3947.11	15.4936
3946.62	25.819
3946.14	15.4892
3945.65	25.8116
3945.17	25.808
3944.69	-5.16085
3944.2	46.441
3943.72	20.6375
3943.23	36.1105
3942.75	20.6316
3942.26	41.2574
3941.78	-5.15643
3941.29	10.3114
3940.81	20.6198
3940.32	10.3084
3939.84	15.4605
3939.35	20.611
3938.87	30.9121
3938.38	25.7564
3937.9	15.4516
3937.41	30.8988
3936.93	20.5963
3936.44	5.14834
3935.95	10.2952
3935.47	0
3934.98	25.7306
3934.5	15.4362
3934.01	20.5786
3933.52	10.2878
3933.04	5.14319
3932.55	10.2849
3932.07	46.2755
3931.58	30.8459
3931.09	25.7012
3930.61	20.5581
3930.12	25.6939
3929.63	15.4141
3929.15	15.4119
3928.66	-5.13658
3928.17	5.13584
3927.69	46.216
3927.2	0
3926.71	10.2673
3926.23	15.3987
3925.74	20.5287
3925.25	20.5257
3924.76	20.5228
3924.28	46.1697
3923.79	41.0339
3923.3	10.257
3922.81	41.0221
3922.33	15.3811
3921.84	10.2526
3921.35	15.3767
3920.86	-5.12484
3920.38	10.2482
3919.89	5.12337
3919.4	0
3918.91	10.2438
3918.42	35.8482
3917.94	20.4818
3917.45	0
3916.96	-5.11897
3916.47	30.7094
3915.98	15.3525
3915.49	25.5839
3915	35.8123
3914.52	5.11531
3914.03	20.4583
3913.54	35.7969
3913.05	10.2262
3912.56	30.6743
3912.07	30.6699
3911.58	30.6655
3911.09	5.11019
3910.6	30.6567
3910.11	25.5436
3909.62	20.432
3909.14	0
3908.65	10.2131
3908.16	25.529
3907.67	0
3907.18	30.626
3906.69	5.10361
3906.2	30.6173
3905.71	10.2043
3905.22	45.9128
3904.73	20.4027
3904.24	10.1999
3903.75	-10.1985
3903.26	5.0985
3902.77	15.2933
3902.27	30.5822
3901.78	20.3852
3901.29	35.669
3900.8	25.4742
3900.31	30.5647
3899.82	10.1868
3899.33	10.1853
3898.84	0
3898.35	20.3648
3897.86	5.09047
3897.37	25.4487
3896.87	-10.178
3896.38	25.4414
3895.89	15.2627
3895.4	20.3473
3894.91	30.5166
3894.42	15.2561
3893.93	20.3385
3893.43	25.4195
3892.94	45.7486
3892.45	30.4947
3891.96	-15.2452
3891.47	30.486
3890.97	30.4816
3890.48	15.2386
3889.99	5.07881
3889.5	30.4685
3889.01	30.4641
3888.51	15.2299
3888.02	15.2277
3887.53	5.07517
3887.03	20.2978
3886.54	10.1474
3886.05	10.146
3885.56	25.3613
3885.06	25.3576
3884.57	35.4956
3884.08	45.6307
3883.58	30.4161
3883.09	10.1372
3882.6	-5.06789
3882.1	-10.1343
3881.61	5.06644
3881.12	20.2629
3880.62	15.195
3880.13	30.3856
3879.64	10.1271
3879.14	-15.1884
3878.65	35.4346
3878.15	-5.06135
3877.66	25.3031
3877.17	20.2396
3876.67	30.3551
3876.18	0
3875.68	0
3875.19	10.114
3874.7	-15.1688
3874.2	-5.05555
3873.71	5.05482
3873.21	5.0541
3872.72	10.1067
3872.22	35.3685
3871.73	30.3115
3871.23	10.1024
3870.74	15.1514
3870.24	5.04974
3869.75	5.04902
3869.25	10.0966
3868.76	15.1427
3868.26	15.1405
3867.77	10.0922
3867.27	15.1362
3866.77	10.0893
3866.28	50.4395
3865.78	5.04322
3865.29	30.255
3864.79	10.0835
3864.3	15.1232
3863.8	5.04033
3863.3	5.0396
3862.81	35.2722
3862.31	25.1908
3861.81	-5.03743
3861.32	20.1468
3860.82	15.108
3860.33	15.1058
3859.83	5.03454
3859.33	15.1014
3858.84	65.4302
3858.34	5.03237
3857.84	25.1582
3857.35	25.1546
3856.85	35.2114
3856.35	15.0884
3855.85	0
3855.36	25.1402
3854.86	5.02731
3854.36	20.1063
3853.86	40.2069
3853.37	10.0503
3852.87	5.02442
3852.37	5.0237
3851.87	45.2068
3851.38	20.089
3850.88	15.0646
3850.38	10.0416
3849.88	25.1004
3849.38	10.0387
3848.89	25.0932
3848.39	15.0538
3847.89	-5.0172
3847.39	-5.01648
3846.89	10.0315
3846.39	-10.0301
3845.9	30.0859
3845.4	20.0544
3844.9	20.0515
3844.4	10.0243
3843.9	20.0457
3843.4	0
3842.9	30.0599
3842.4	35.0649
3841.91	20.0342
3841.41	35.0548
3840.91	30.0426
3840.41	-10.0128
3839.91	20.0227
3839.41	15.0148
3838.91	30.0254
3838.41	20.014
3837.91	35.0195
3837.41	30.0124
3836.91	25.0067
3836.41	5.00063
3835.91	19.9996
3835.41	4.99919
3834.91	9.99694
3834.41	4.99775
3833.91	9.99406
3833.41	9.99262
3832.91	19.9824
3832.41	9.98974
3831.91	4.99415
3831.41	14.9803
3830.91	14.9781
3830.4	44.928
3829.9	44.9215
3829.4	9.98112
3828.9	9.97968
3828.4	-4.98912
3827.9	0
3827.4	-4.98768
3826.9	0
3826.4	24.9312
3825.89	34.8987
3825.39	24.9241
3824.89	44.8568
3824.39	49.8338
3823.89	19.9306
3823.39	0
3822.88	0
3822.38	0
3821.88	4.97979
3821.38	24.8954
3820.88	29.8701
3820.37	14.9329
3819.87	44.7923
3819.37	0
3818.87	9.95097
3818.36	4.97477
3817.86	14.9222
3817.36	4.97333
3816.86	-19.8905
3816.35	19.8876
3815.85	34.7983
3815.35	4.97047
3814.84	-4.96975
3814.34	9.93807
3813.84	0
3813.33	19.8704
3812.83	19.8675
3812.33	4.96617
3811.82	29.7927
3811.32	14.8942
3810.82	9.92805
3810.31	9.92661
3809.81	24.813
3809.31	29.7713
3808.8	14.8835
3808.3	19.8418
3807.79	29.7584
3807.29	14.877
3806.79	14.8749
3806.28	24.7879
3805.78	49.5687
3805.27	4.95615
3804.77	69.3761
3804.26	-9.90945
3803.76	4.95401
3803.25	0
3802.75	14.8577
3802.24	4.95187
3801.74	34.6581
3801.23	9.90087
3800.73	-34.6481
3800.22	14.847
3799.72	4.94829
3799.21	9.89516
3798.71	29.6812
3798.2	-4.94615
3797.7	29.6726
3797.19	24.7236
3796.69	-9.88802
3796.18	4.9433
3795.67	14.8278
3795.17	24.7094
3794.66	24.7058
3794.16	29.6427
3793.65	14.8192
3793.14	9.87804
3792.64	-9.87661
3792.13	9.87518
3791.63	29.6213
3791.12	14.8085
3790.61	29.6127
3790.11	14.8042
3789.6	19.7361
3789.09	14.7999
3788.59	9.86521
3788.08	4.93189
3787.57	54.243
3787.06	19.7219
3786.56	19.719
3786.05	19.7162
3785.54	9.85666
3785.04	4.92762
3784.53	14.7807
3784.02	9.85239
3783.51	4.92548
3783.01	24.6239
3782.5	-4.92406
3781.99	34.4634
3781.48	0
3780.97	-9.84385
3780.47	4.92122
3779.96	9.84101
3779.45	9.83959
3778.94	14.7572
3778.43	24.5919
3777.93	4.91766
3777.42	19.6678
3776.91	19.665
3776.4	19.6621
3775.89	39.3185
3775.38	0
3774.87	44.2206
3774.36	44.2142
3773.86	9.82395
3773.35	14.7338
3772.84	19.6422
3772.33	49.0985
3771.82	49.0914
3771.31	24.5421
3770.8	39.2617
3770.29	19.628
3769.78	39.2504
3769.27	-4.90559
3768.76	29.4293
3768.25	34.3292
3767.74	0
3767.23	9.8055
3766.72	29.4123
3766.21	14.704
3765.7	9.80125
3765.19	-4.89992
3764.68	-14.6976
3764.17	29.391
3763.66	39.1823
3763.15	9.79416
3762.64	29.3782
3762.13	29.374
3761.62	39.1596
3761.11	9.78849
3760.6	39.1483
3760.09	0
3759.57	9.78424
3759.06	24.4571
3758.55	29.3442
3758.04	44.01
3757.53	14.6679
3757.02	34.2201
3756.51	29.3273
3756	34.2102
3755.48	0
3754.97	0
3754.46	-4.88505
3753.95	19.5374
3753.44	0
3752.92	24.4146
3752.41	43.94
3751.9	34.1706
3751.39	43.9272
3750.88	19.5204
3750.36	4.87939
3749.85	29.2721
3749.34	-9.75595
3748.83	0
3748.31	9.75313
3747.8	24.3793
3747.29	29.2509
3746.78	9.74889
3746.26	34.1162
3745.75	9.74607
3745.24	14.617
3744.72	-24.3581
3744.21	29.2255
3743.7	38.9617
3743.18	24.3475
3742.67	29.2128
3742.16	9.73619
3741.64	14.6022
3741.13	9.73336
3740.61	4.86598
3740.1	19.4611
3739.59	4.86457
3739.07	34.047
3738.56	19.4526
3738.04	4.86245
3737.53	24.3087
3737.02	19.4442
3736.5	0
3735.99	14.5789
3735.47	14.5768
3734.96	34.0076
3734.44	34.0026
3733.93	29.1409
3733.41	19.4244
3732.9	14.5662
3732.38	19.4188
3731.87	-4.854
3731.35	19.4132
3730.84	24.263
3730.32	33.9632
3729.81	29.1071
3729.29	24.2524
3728.78	38.7982
3728.26	19.3963
3727.75	24.2418
3727.23	43.629
3726.71	43.6227
3726.2	-9.69252
3725.68	14.5367
3725.17	9.68971
3724.65	14.5325
3724.13	9.6869
3723.62	4.84274
3723.1	29.0523
3722.59	33.8894
3722.07	19.3625
3721.55	33.8795
3721.04	-4.83923
3720.52	19.3541
3720	24.1891
3719.49	4.83713
3718.97	19.3457
3718.45	14.5072
3717.93	33.8451
3717.42	14.503
3716.9	33.8353
3716.38	33.8304
3715.87	0
3715.35	9.66302
3714.83	19.3232
3714.31	24.1505
3713.8	-4.82941
3713.28	19.3148
3712.76	38.624
3712.24	38.6184
3711.72	14.4798
3711.21	24.1295
3710.69	9.6504
3710.17	9.649
3709.65	4.8238
3709.13	28.9386
3708.61	24.112
3708.1	33.7519
3707.58	33.747
3707.06	24.1015
3706.54	0
3706.02	0
3705.5	4.81819
3704.98	33.7225
3704.46	19.2672
3703.95	19.2644
3703.43	48.1539
3702.91	24.0735
3702.39	28.884
3701.87	43.3197
3701.35	24.063
3700.83	33.6833
3700.31	33.6784
3699.79	-9.62099
3699.27	4.8098
3698.75	19.2364
3698.23	43.2756
3697.71	38.4616
3697.19	33.649
3696.67	24.0315
3696.15	19.2224
3695.63	19.2196
3695.11	14.4126
3694.59	19.214
3694.07	38.4225
3693.55	4.80211
3693.03	33.6099
3692.51	33.605
3691.99	9.60003
3691.46	43.1939
3690.94	28.7917
3690.42	38.3834
3689.9	19.1889
3689.38	28.7792
3688.86	14.3875
3688.34	52.7464
3687.82	28.7666
3687.29	47.9374
3686.77	-4.79304
3686.25	-4.79234
3685.73	23.9582
3685.21	19.1638
3684.69	4.79025
3684.16	14.3687
3683.64	19.1554
3683.12	4.78816
3682.6	19.1498
3682.08	19.1471
3681.55	0
3681.03	43.0683
3680.51	9.56935
3679.99	62.1917
3679.46	9.56656
3678.94	14.3478
3678.42	9.56378
3677.89	4.78119
3677.37	23.9025
3676.85	4.7798
3676.33	-4.7791
3675.8	52.5625
3675.28	38.2217
3674.76	9.55403
3674.23	4.77632
3673.71	23.8781
3673.19	28.6496
3672.66	33.4196
3672.14	4.77354
3671.61	4.77284
3671.09	23.8607
3670.57	9.54291
3670.04	9.54151
3669.52	19.0802
3668.99	28.6162
3668.47	9.53735
3667.95	71.5197
3667.42	14.3018
3666.9	4.76659
3666.37	19.0636
3665.85	9.5304
3665.32	4.7645
3664.8	23.8191
3664.27	9.52623
3663.75	9.52484
3663.22	28.5704
3662.7	23.8052
3662.17	14.281
3661.65	4.75965
3661.12	9.5179
3660.6	38.0661
3660.07	23.7878
3659.55	4.75687
3659.02	23.7809
3658.49	14.2665
3657.97	9.50958
3657.44	14.2623
3656.92	14.2602
3656.39	23.7636
3655.86	19.0081
3655.34	23.7566
3654.81	23.7532
3654.29	9.49988
3653.76	28.4955
3653.23	28.4913
3652.71	23.7393
3652.18	28.483
3651.65	42.7183
3651.13	33.2205
3650.6	-14.2353
3650.07	28.4664
3649.55	14.2311
3649.02	0
3648.49	4.74232
3647.96	14.2249
3647.44	14.2228
3646.91	18.961
3646.38	52.1351
3645.85	-9.47772
3645.33	33.1672
3644.8	14.2124
3644.27	18.9471
3643.74	0
3643.22	-4.7354
3642.69	28.4083
3642.16	18.9361
3641.63	71
3641.1	0
3640.57	37.8556
3640.05	42.5813
3639.52	18.9223
3638.99	37.839
3638.46	4.72919
3637.93	9.45699
3637.4	23.639
3636.87	18.9085
3636.35	37.8114
3635.82	23.6287
3635.29	9.45009
3634.76	9.44871
3634.23	-14.171
3633.7	18.8919
3633.17	23.6114
3632.64	0
3632.11	0
3631.58	9.44043
3631.05	37.7562
3630.52	18.8753
3629.99	0
3629.46	37.7396
3628.93	14.1503
3628.4	18.8643
3627.87	23.5769
3627.34	37.7176
3626.81	14.142
3626.28	18.8533
3625.75	28.2758
3625.22	9.42389
3624.69	18.845
3624.16	18.8423
3623.63	37.679
3623.1	28.2551
3622.57	14.1255
3622.03	47.0781
3621.5	37.657
3620.97	0
3620.44	18.823
3619.91	18.8202
3619.38	28.2262
3618.85	18.8147
3618.32	18.812
3617.78	-4.70231
3617.25	4.70162
3616.72	28.2056
3616.19	37.6019
3615.66	46.9956
3615.12	42.2898
3614.59	28.1891
3614.06	14.0925
3613.53	28.1808
3613	18.7845
3612.46	9.39086
3611.93	37.558
3611.4	28.1643
3610.86	42.2403
3610.33	37.5415
3609.8	4.692
3609.27	42.2218
3608.73	23.4531
3608.2	28.1396
3607.67	-9.3785
3607.13	28.1314
3606.6	37.503
3606.07	32.8103
3605.53	-9.37301
3605	18.7433
3604.47	14.0554
3603.93	37.4756
3603.4	14.0513
3602.87	51.5138
3602.33	9.36478
3601.8	23.4085
3601.26	28.0861
3600.73	56.164
3600.2	0
3599.66	37.4317
3599.13	9.35656
3598.59	37.4207
3598.06	4.67691
3597.52	18.7049
3596.99	28.0532
3596.45	46.7485
3595.92	23.3708
3595.38	14.0205
3594.85	28.0368
3594.31	18.6885
3593.78	9.34286
3593.24	-9.34149
3592.71	46.7006
3592.17	28.0163
3591.64	42.0182
3591.1	23.34
3590.57	46.6732
3590.03	9.33328
3589.49	60.6574
3588.96	27.9916
3588.42	51.3105
3587.89	46.639
3587.35	13.9897
3586.81	9.32507
3586.28	9.32371
3585.74	23.3058
3585.2	27.9629
3584.67	9.31961
3584.13	18.6365
3583.6	13.9753
3583.06	27.9465
3582.52	27.9424
3581.98	18.6256
3581.45	-13.9671
3580.91	46.5502
3580.37	18.6174
3579.84	41.8829
3579.3	18.6119
3578.76	18.6092
3578.22	55.8193
3577.69	27.9056
3577.15	32.5517
3576.61	23.2478
3576.07	51.1377
3575.54	41.8338
3575	23.2376
3574.46	18.5873
3573.92	27.8769
3573.38	13.9364
3572.85	0
3572.31	13.9323
3571.77	27.8606
3571.23	18.571
3570.69	37.1365
3570.15	41.7724
3569.61	27.8442
3569.08	32.4801
3568.54	23.1967
3568	55.6639
3567.46	27.8279
3566.92	18.5492
3566.38	23.1831
3565.84	18.5437
3565.3	41.7173
3564.76	32.442
3564.22	23.1695
3563.68	27.7993
3563.14	46.3253
3562.6	23.1592
3562.06	32.4182
3561.52	50.9354
3560.98	18.5192
3560.44	50.9204
3559.9	23.1422
3559.36	4.62777
3558.82	32.3896
3558.28	41.6377
3557.74	32.3801
3557.2	50.8755
3556.66	36.995
3556.12	27.7421
3555.58	13.869
3555.04	41.601
3554.5	46.2165
3553.96	4.62097
3553.42	46.2029
3552.87	60.055
3552.33	36.9515
3551.79	18.473
3551.25	69.2637
3550.71	27.7014
3550.17	46.1622
3549.63	46.1554
3549.08	13.8446
3548.54	36.9135
3548	27.681
3547.46	18.4513
3546.92	36.8972
3546.37	9.22294
3545.83	32.2756
3545.29	-4.61012
3544.75	18.4378
3544.21	23.0438
3543.66	36.8647
3543.12	23.037
3542.58	46.0673
3542.03	0
3541.49	36.843
3540.95	32.2329
3540.41	36.8321
3539.86	18.4134
3539.32	55.2319
3538.78	23.0099
3538.23	4.60131
3537.69	23.0032
3537.15	22.9998
3536.6	32.1949
3536.06	9.1972
3535.52	18.3917
3534.97	45.9725
3534.43	36.7726
3533.88	32.1713
3533.34	27.5713
3532.8	18.3782
3532.25	50.5325
3531.71	27.5591
3531.16	32.1476
3530.62	27.551
3530.07	41.3204
3529.53	22.9524
3528.98	27.5388
3528.44	68.837
3527.89	36.7077
3527.35	32.1145
3526.8	27.5226
3526.26	45.8643
3525.71	41.2718
3525.17	27.5105
3524.62	41.2596
3524.08	32.0861
3523.53	22.9153
3522.99	27.4943
3522.44	41.2353
3521.9	13.7431
3521.35	13.7411
3520.8	18.3187
3520.26	18.316
3519.71	36.6266
3519.17	27.4659
3518.62	9.15396
3518.07	45.763
3517.53	50.3319
3516.98	36.5996
3516.43	45.7428
3515.89	32.0153
3515.34	36.5835
3514.79	9.14452
3514.25	27.4295
3513.7	41.1382
3513.15	4.57024
3512.61	18.2783
3512.06	54.8267
3511.51	41.114
3510.96	50.243
3510.42	63.9362
3509.87	22.831
3509.32	41.0897
3508.77	9.1297
3508.23	22.8209
3507.68	41.0715
3507.13	-4.56283
3506.58	31.9351
3506.04	41.0534
3505.49	45.6081
3504.94	31.921
3504.39	50.1541
3503.84	18.2352
3503.29	18.2325
3502.75	41.017
3502.2	31.8974
3501.65	36.4488
3501.1	27.3326
3500.55	72.8761
3500	50.095
3499.45	59.1944
3498.9	18.211
3498.35	40.9686
3497.8	18.2056
3497.26	36.4058
3496.71	22.7503
3496.16	31.8457
3495.61	72.7794
3495.06	40.9324
3494.51	36.379
3493.96	36.3736
3493.41	22.7301
3492.86	31.8175
3492.31	18.1787
3491.76	18.1761
3491.21	31.8034
3490.66	31.7987
3490.11	36.336
3489.56	27.248
3489	27.244
3488.45	36.3199
3487.9	27.2359
3487.35	18.1546
3486.8	18.1519
3486.25	27.2238
3485.7	40.8297
3485.15	40.8237
3484.6	40.8177
3484.05	40.8116
3483.49	18.1358
3482.94	27.1997
3482.39	31.7283
3481.84	13.5958
3481.29	31.7189
3480.74	22.653
3480.18	18.1198
3479.63	36.2341
3479.08	36.2288
3478.53	58.8631
3477.98	31.6908
3477.42	31.6861
3476.87	27.1555
3476.32	45.2525
3475.77	31.6721
3475.21	31.6674
3474.66	22.6162
3474.11	31.658
3473.56	45.2191
3473	9.04248
3472.45	36.1646
3471.9	9.03981
3471.34	13.5577
3470.79	36.1485
3470.24	31.6253
3469.68	31.6206
3469.13	22.5828
3468.58	36.1271
3468.02	49.6675
3467.47	40.631
3466.91	36.1111
3466.36	13.5397
3465.81	40.613
3465.25	49.6307
3464.7	31.5785
3464.14	45.1055
3463.59	49.6087
3463.04	72.1475
3462.48	27.0513
3461.93	36.0631
3461.37	27.0433
3460.82	45.0655
3460.26	49.5647
3459.71	27.0313
3459.15	54.0546
3458.6	27.0233
3458.04	27.0193
3457.49	49.528
3456.93	27.0113
3456.38	31.5085
3455.82	13.5016
3455.27	26.9993
3454.71	13.4976
3454.15	49.484
3453.6	26.9873
3453.04	40.4749
3452.49	22.4827
3451.93	40.4629
3451.37	22.4761
3450.82	40.451
3450.26	35.9511
3449.7	44.9322
3449.15	17.9702
3448.59	49.4108
3448.04	49.4035
3447.48	26.9433
3446.92	35.9191
3446.36	49.3815
3445.81	22.4428
3445.25	53.8548
3444.69	26.9234
3444.14	26.9194
3443.58	35.8872
3443.02	22.4262
3442.46	35.8766
3441.91	35.8713
3441.35	44.8324
3440.79	40.3432
3440.23	22.4096
3439.68	8.9625
3439.12	49.2864
3438.56	26.8795
3438	58.2303
3437.44	76.1361
3436.88	22.3896
3436.33	35.8181
3435.77	44.766
3435.21	53.7112
3434.65	58.1785
3434.09	44.7461
3433.53	58.1613
3432.97	4.47328
3432.42	26.8357
3431.86	40.2476
3431.3	13.4139
3430.74	40.2356
3430.18	58.1095
3429.62	49.1623
3429.06	40.2177
3428.5	26.8078
3427.94	26.8039
3427.38	75.933
3426.82	62.5238
3426.26	35.7226
3425.7	53.5759
3425.14	44.64
3424.58	26.78
3424.02	26.776
3423.46	40.1581
3422.9	71.3816
3422.34	13.3821
3421.78	26.7601
3421.22	53.5123
3420.66	35.6696
3420.1	40.1223
3419.54	31.2016
3418.98	8.91343
3418.41	49.0166
3417.85	53.4647
3417.29	62.3662
3416.73	53.4488
3416.17	53.4409
3415.61	35.622
3415.05	40.0687
3414.49	53.4171
3413.92	35.6061
3413.36	31.1507
3412.8	44.4944
3412.24	44.4878
3411.68	13.3443
3411.11	35.5796
3410.55	71.1487
3409.99	44.4613
3409.43	48.9002
3408.86	40.0033
3408.3	22.2208
3407.74	31.1044
3407.18	48.8711
3406.61	39.9795
3406.05	44.4151
3405.49	22.2043
3404.92	48.8421
3404.36	31.0767
3403.8	57.7053
3403.24	48.8203
3402.67	26.6253
3402.11	48.8058
3401.54	70.9797
3400.98	39.9201
3400.42	48.784
3399.85	26.6055
3399.29	35.4687
3398.73	66.494
3398.16	66.4841
3397.6	44.3161
3397.03	22.1548
3396.47	70.8847
3395.9	31.0075
3395.34	62.0057
3394.78	35.4266
3394.21	30.9936
3393.65	22.135
3393.08	44.2634
3392.52	61.9596
3391.95	57.5253
3391.39	44.2437
3390.82	44.2371
3390.26	39.8075
3389.69	22.112
3389.13	53.0608
3388.56	44.2108
3387.99	61.8859
3387.43	66.2964
3386.86	39.7719
3386.3	44.1845
3385.73	26.5067
3385.17	44.1713
3384.6	39.7482
3384.03	30.9107
3383.47	48.5667
3382.9	66.2175
3382.33	39.7246
3381.77	48.545
3381.2	26.4752
3380.63	13.2356
3380.07	44.1121
3379.5	88.2111
3378.93	13.2297
3378.37	35.2739
3377.8	57.3116
3377.23	79.3427
3376.67	26.4436
3376.1	44.0662
3375.53	57.2775
3374.96	57.2689
3374.4	13.2139
3373.83	26.4239
3373.26	26.42
3372.69	30.8187
3372.12	48.4222
3371.56	66.0205
3370.99	74.8121
3370.42	66.0008
3369.85	74.7898
3369.28	39.5887
3368.72	65.9713
3368.15	39.5769
3367.58	79.142
3367.01	57.1496
3366.44	65.932
3365.87	65.9221
3365.3	74.7006
3364.73	61.509
3364.17	70.2855
3363.6	48.3141
3363.03	21.9577
3362.46	43.9088
3361.89	52.6827
3361.32	35.1166
3360.75	43.8891
3360.18	52.6591
3359.61	43.8761
3359.04	78.9651
3358.47	61.4081
3357.9	30.6995
3357.33	78.9298
3356.76	30.6903
3356.19	52.6041
3355.62	78.8944
3355.05	17.5295
3354.48	65.7258
3353.91	21.9053
3353.34	43.8041
3352.77	52.5571
3352.19	35.0328
3351.62	52.5414
3351.05	52.5335
3350.48	35.0171
3349.91	52.5179
3349.34	21.8792
3348.77	78.7533
3348.2	30.6217
3347.62	48.1126
3347.05	30.6126
3346.48	65.5885
3345.91	30.6034
3345.34	56.8264
3344.76	52.4473
3344.19	48.0695
3343.62	61.1703
3343.05	91.7417
3342.48	65.52
3341.9	61.1429
3341.33	43.6669
3340.76	21.8302
3340.19	39.2885
3339.61	74.2005
3339.04	52.369
3338.47	78.5418
3337.89	26.1767
3337.32	74.1562
3336.75	87.2296
3336.17	74.134
3335.6	65.4026
3335.03	34.8762
3334.45	52.3065
3333.88	61.0151
3333.31	52.2908
3332.73	60.9968
3332.16	39.2064
3331.59	47.9118
3331.01	56.6145
3330.44	74.0233
3329.86	43.5366
3329.29	78.3542
3328.71	60.933
3328.14	43.5171
3327.56	73.968
3326.99	65.2561
3326.42	69.5961
3325.84	56.5384
3325.27	43.4846
3324.69	82.6083
3324.12	65.2073
3323.54	56.5046
3322.97	95.6088
3322.39	47.7972
3321.81	47.7901
3321.24	65.1586
3320.66	65.1488
3320.09	65.1391
3319.51	91.181
3318.94	34.7304
3318.36	86.8131
3317.78	52.0801
3317.21	47.7329
3316.63	65.0806
3316.06	65.0709
3315.48	60.7237
3314.9	73.7249
3314.33	56.3694
3313.75	60.6964
3313.17	91.031
3312.6	56.3441
3312.02	56.3357
3311.44	60.6601
3310.86	69.3155
3310.29	56.3104
3309.71	60.6329
3309.13	64.954
3308.56	25.9777
3307.98	56.2766
3307.4	95.2231
3306.82	34.6214
3306.25	77.8865
3305.67	60.5693
3305.09	60.5602
3304.51	82.1766
3303.93	64.8665
3303.36	60.533
3302.78	69.1702
3302.2	60.5149
3301.62	60.5058
3301.04	82.1027
3300.46	60.4877
3299.88	73.4383
3299.31	21.5963
3298.73	64.7791
3298.15	47.4976
3297.57	60.4424
3296.99	51.8
3296.41	56.1082
3295.83	51.7845
3295.25	77.665
3294.67	81.9675
3294.09	77.6418
3293.51	73.3173
3292.93	30.185
3292.35	51.7379
3291.77	60.3518
3291.19	64.653
3290.61	73.2624
3290.03	51.7069
3289.45	94.7817
3288.87	43.0761
3288.29	64.6045
3287.71	55.9822
3287.13	94.7248
3286.55	77.4905
3285.97	60.2614
3285.39	51.6448
3284.81	68.8495
3284.23	64.5367
3283.64	90.3378
3283.06	81.7219
3282.48	55.9066
3281.9	60.1981
3281.32	73.0867
3280.74	73.0757
3280.16	55.8731
3279.57	47.2701
3278.99	42.9664
3278.41	73.0319
3277.83	55.8395
3277.25	68.7153
3276.66	81.5871
3276.08	103.042
3275.5	90.1482
3274.92	81.5504
3274.33	94.4126
3273.75	60.0717
3273.17	51.4823
3272.59	90.0805
3272	85.7781
3271.42	77.1887
3270.84	85.7523
3270.25	81.4524
3269.67	81.4402
3269.09	64.2852
3268.5	81.4157
3267.92	55.6971
3267.34	81.3913
3266.75	81.379
3266.17	72.8019
3265.59	59.9455
3265	64.2177
3264.42	64.208
3263.83	81.3179
3263.25	51.351
3262.67	119.801
3262.08	72.7253
3261.5	59.8825
3260.91	64.1501
3260.33	76.9686
3259.74	81.2324
3259.16	59.8465
3258.57	59.8375
3257.99	81.1958
3257.4	76.9107
3256.82	89.7157
3256.23	55.5299
3255.65	55.5216
3255.06	72.5942
3254.48	72.5833
3253.89	72.5724
3253.3	59.7565
3252.72	72.5506
3252.13	55.4715
3251.55	81.0615
3250.96	72.5178
3250.37	98.0976
3249.79	68.2316
3249.2	106.596
3248.62	76.7374
3248.03	63.9382
3247.44	85.2381
3246.86	55.3964
3246.27	110.776
3245.68	55.3798
3245.09	72.4088
3244.51	59.6218
3243.92	72.387
3243.33	55.3464
3242.75	72.3652
3242.16	85.1227
3241.57	97.8764
3240.98	68.0777
3240.4	72.3216
3239.81	93.5786
3239.22	85.0587
3238.63	63.7844
3238.04	51.0198
3237.46	102.024
3236.87	80.7571
3236.28	110.493
3235.69	55.2382
3235.1	76.4721
3234.51	89.2041
3233.93	59.4604
3233.34	76.4376
3232.75	42.4589
3232.16	72.1693
3231.57	89.1369
3230.98	101.855
3230.39	80.6234
3229.8	101.825
3229.21	55.1467
3228.62	76.3455
3228.04	38.167
3227.45	80.5626
3226.86	67.832
3226.27	84.7772
3225.68	50.8587
3225.09	63.5637
3224.5	72.028
3223.91	67.7809
3223.32	114.363
3222.73	93.1706
3222.14	59.2814
3221.54	93.1425
3220.95	84.6622
3220.36	88.882
3219.77	67.7094
3219.18	88.8551
3218.59	84.6112
3218	71.9087
3217.41	76.1271
3216.82	71.887
3216.23	88.7882
3215.63	59.1832
3215.04	105.668
3214.45	59.1653
3213.86	84.5091
3213.27	71.8219
3212.68	54.9144
3212.08	76.0238
3211.49	84.4581
3210.9	59.1118
3210.31	113.984
3209.72	118.188
3209.12	46.4239
3208.53	80.1747
3207.94	105.477
3207.35	71.7136
3206.75	84.3562
3206.16	75.9091
3205.57	84.3308
3204.97	101.182
3204.38	71.6595
3203.79	71.6487
3203.2	71.6379
3202.6	96.9072
3202.01	92.6798
3201.41	117.938
3200.82	92.6518
3200.23	84.2162
3199.63	75.7831
3199.04	79.9812
3198.45	113.64
3197.85	122.04
3197.26	96.7755
3196.66	84.1399
3196.07	88.3336
3195.47	84.1145
3194.88	88.3069
3194.29	88.2935
3193.69	105.095
3193.1	92.47
3192.5	88.2535
3191.91	84.0383
3191.31	109.233
3190.72	109.217
3190.12	100.8
3189.53	83.9875
3188.93	96.571
3188.33	117.547
3187.74	104.937
3187.14	100.724
3186.55	83.924
3185.95	79.7157
3185.36	92.2885
3184.76	100.663
3184.16	75.4859
3183.57	129.984
3182.97	75.4631
3182.37	83.8352
3181.78	92.2048
3181.18	96.3813
3180.58	121.506
3179.99	83.7845
3179.39	79.5832
3178.79	108.887
3178.2	108.87
3177.6	83.7338
3177	108.837
3176.41	100.45
3175.81	92.0654
3175.21	108.788
3174.61	83.6705
3174.02	100.389
3173.42	133.832
3172.82	125.449
3172.22	108.706
3171.62	87.7875
3171.03	87.7742
3170.43	100.298
3169.83	129.532
3169.23	129.513
3168.63	83.5439
3168.03	129.473
3167.43	116.926
3166.84	100.207
3166.24	70.9693
3165.64	75.1326
3165.04	133.549
3164.44	108.492
3163.84	125.164
3163.24	129.317
3162.64	129.297
3162.04	104.256
3161.44	104.24
3160.84	95.8865
3160.24	120.882
3159.64	100.025
3159.04	112.511
3158.44	120.827
3157.84	116.643
3157.24	158.277
3156.64	137.43
3156.04	116.59
3155.44	149.879
3154.84	141.531
3154.24	145.671
3153.64	133.165
3153.04	203.878
3152.44	149.765
3151.84	137.264
3151.24	116.449
3150.64	145.539
3150.03	157.99
3149.43	116.396
3148.83	133.003
3148.23	108.049
3147.63	141.273
3147.03	120.48
3146.42	132.923
3145.82	149.515
3145.22	141.188
3144.62	132.862
3144.02	141.145
3143.41	141.123
3142.81	136.952
3142.21	128.632
3141.61	165.952
3141	149.334
3140.4	132.721
3139.8	128.554
3139.19	136.827
3138.59	128.515
3137.99	107.771
3137.39	120.187
3136.78	157.463
3136.18	120.151
3135.58	103.563
3134.97	136.682
3134.37	107.672
3133.76	107.656
3133.16	157.32
3132.56	173.853
3131.95	136.578
3131.35	144.834
3130.74	124.124
3130.14	119.969
3129.54	119.95
3128.93	124.068
3128.33	136.454
3127.72	136.433
3127.12	157.081
3126.51	144.658
3125.91	99.1789
3125.3	161.141
3124.7	103.28
3124.09	111.525
3123.49	136.288
3122.88	82.5863
3122.27	123.861
3121.67	136.226
3121.06	90.8035
3120.46	169.199
3119.85	165.047
3119.25	99.0132
3118.64	152.622
3118.03	152.599
3117.43	144.328
3116.82	136.06
3116.21	136.04
3115.61	152.506
3115	135.998
3114.39	131.857
3113.79	140.077
3113.18	111.221
3112.57	131.797
3111.97	164.721
3111.36	152.344
3110.75	148.204
3110.15	111.136
3109.54	201.661
3108.93	152.251
3108.32	115.2
3107.71	111.068
3107.11	119.278
3106.5	160.383
3105.89	156.247
3105.28	168.557
3104.67	164.421
3104.07	176.725
3103.46	172.589
3102.85	184.889
3102.24	127.349
3101.63	160.188
3101.02	184.805
3100.41	164.246
3099.81	164.221
3099.2	143.671
3098.59	114.919
3097.98	180.56
3097.37	155.915
3096.76	155.891
3096.15	172.274
3095.54	180.45
3094.93	164.021
3094.32	143.496
3093.71	184.467
3093.1	159.847
3092.49	151.627
3091.88	196.675
3091.27	192.548
3090.66	159.75
3090.05	204.776
3089.44	155.606
3088.83	184.242
3088.22	155.559
3087.61	176
3087	196.435
3086.39	135.029
3085.77	225.014
3085.16	179.984
3084.55	208.586
3083.94	220.822
3083.33	171.724
3082.72	196.226
3082.11	163.497
3081.49	220.687
3080.88	208.395
3080.27	183.85
3079.66	187.907
3079.05	212.384
3078.43	224.602
3077.82	204.153
3077.21	212.287
3076.6	183.682
3075.98	212.222
3075.37	252.995
3074.76	248.877
3074.15	244.759
3073.53	252.879
3072.92	228.372
3072.31	220.183
3071.69	260.917
3071.08	195.658
3070.47	277.14
3069.85	285.248
3069.24	256.684
3068.63	338.119
3068.01	289.19
3067.4	293.219
3066.79	301.318
3066.17	297.2
3065.56	293.085
3064.94	370.37
3064.33	284.856
3063.71	325.5
3063.1	378.336
3062.48	423.021
3061.87	427.024
3061.26	463.555
3060.64	467.55
3060.03	504.064
3059.41	483.664
3058.79	536.42
3058.18	544.464
3057.56	589.069
3056.95	625.536
3056.33	584.828
3055.72	576.617
3055.1	613.07
3054.49	617.035
3053.87	637.235
3053.25	702.069
3052.64	665.444
3052.02	572.032
3051.41	624.677
3050.79	551.578
3050.17	648.817
3049.56	640.608
3048.94	551.326
3048.32	474.23
3047.71	534.947
3047.09	579.437
3046.47	474.012
3045.85	405.077
3045.24	421.215
3044.62	380.656
3044	417.038
3043.38	408.877
3042.77	481.673
3042.15	376.376
3041.53	437.015
3040.91	384.352
3040.3	380.248
3039.68	364.012
3039.06	351.824
3038.44	367.944
3037.82	375.973
3037.2	331.452
3036.59	323.319
3035.97	339.433
3035.35	327.26
3034.73	286.814
3034.11	339.277
3033.49	274.611
3032.87	234.191
3032.25	314.898
3031.63	262.375
3031.01	278.479
3030.39	250.189
3029.77	254.185
3029.15	266.249
3028.54	250.074
3027.92	173.412
3027.3	241.933
3026.68	253.991
3026.05	245.89
3025.43	249.883
3024.81	245.815
3024.19	185.34
3023.57	217.54
3022.95	213.479
3022.33	213.446
3021.71	253.68
3021.09	229.485
3020.47	241.526
3019.85	209.29
3019.23	221.331
3018.61	225.32
3017.98	185.056
3017.36	209.162
3016.74	257.391
3016.12	241.267
3015.5	221.127
3014.88	261.292
3014.25	233.117
3013.63	196.914
3013.01	192.866
3012.39	216.941
3011.76	261.092
3011.14	265.068
3010.52	252.981
3009.9	204.763
3009.27	212.76
3008.65	232.796
3008.03	232.76
3007.4	256.8
3006.78	264.784
3006.16	224.631
3005.54	212.564
3004.91	220.552
3004.29	256.603
3003.66	208.458
3003.04	264.54
3002.42	240.454
3001.79	200.348
3001.17	236.374
3000.54	228.327
2999.92	244.312
2999.3	232.261
2998.67	232.225
2998.05	244.2
2997.42	208.138
2996.8	248.127
2996.17	220.079
2995.55	224.046
2994.92	236.012
2994.3	239.975
2993.67	231.94
2993.05	231.905
2992.42	263.851
2991.8	215.845
2991.17	235.795
2990.55	263.73
2989.92	259.694
2989.29	223.702
2988.67	231.656
2988.04	223.633
2987.42	227.592
2986.79	219.572
2986.16	291.388
2985.54	227.487
2984.91	215.481
2984.28	239.386
2983.66	231.371
2983.03	219.37
2982.4	239.276
2981.78	231.265
2981.15	251.163
2980.52	275.041
2979.9	187.318
2979.27	239.092
2978.64	251.008
2978.01	258.937
2977.39	270.846
2976.76	286.734
2976.13	238.908
2975.5	270.721
2974.87	254.757
2974.25	230.838
2973.62	226.824
2972.99	254.64
2972.36	306.317
2971.73	258.539
2971.1	278.384
2970.47	190.862
2969.85	242.517
2969.22	286.206
2968.59	254.366
2967.96	262.274
2967.33	266.207
2966.7	250.276
2966.07	266.125
2965.44	270.056
2964.81	301.781
2964.18	250.122
2963.55	293.749
2962.92	246.076
2962.29	269.848
2961.66	269.807
2961.03	269.765
2960.4	301.456
2959.77	281.58
2959.14	285.502
2958.51	285.458
2957.88	277.486
2957.25	277.443
2956.62	289.289
2955.99	305.093
2955.36	301.085
2954.73	261.428
2954.09	281.19
2953.46	285.107
2952.83	296.94
2952.2	261.267
2951.57	312.681
2950.94	308.675
2950.3	316.541
2949.67	288.799
2949.04	257.11
2948.41	304.53
2947.78	284.712
2947.14	320.251
2946.51	276.718
2945.88	312.247
2945.25	252.921
2944.61	260.785
2943.98	339.758
2943.35	312.055
2942.71	351.501
2942.08	319.857
2941.45	288.221
2940.82	284.229
2940.18	292.08
2939.55	331.499
2938.91	284.098
2938.28	307.725
2937.65	335.29
2937.01	323.406
2936.38	303.64
2935.75	319.364
2935.11	299.604
2934.48	303.499
2933.84	283.748
2933.21	275.823
2932.57	311.238
2931.94	354.52
2931.3	311.142
2930.67	311.094
2930.03	307.109
2929.4	303.125
2928.76	295.206
2928.13	350.257
2927.49	326.594
2926.86	306.872
2926.22	322.559
2925.59	298.911
2924.95	349.987
2924.32	330.274
2923.68	259.461
2923.04	310.519
2922.41	341.911
2921.77	385.081
2921.13	361.449
2920.5	333.896
2919.86	306.351
2919.23	290.596
2918.59	302.33
2917.95	337.616
2917.31	302.237
2916.68	306.115
2916.04	345.307
2915.4	333.484
2914.77	329.509
2914.13	321.614
2913.49	352.937
2912.85	309.752
2912.22	313.625
2911.58	317.496
2910.94	387.991
2910.3	340.909
2909.66	383.953
2909.03	340.803
2908.39	321.167
2907.75	360.278
2907.11	352.392
2906.47	352.337
2905.83	375.768
2905.19	348.315
2904.56	379.565
2903.92	320.82
2903.28	332.506
2902.64	355.922
2902	371.509
2901.36	324.532
2900.72	289.297
2900.08	340.067
2899.44	390.821
2898.8	386.853
2898.16	367.258
2897.52	343.763
2896.88	386.673
2896.24	324.13
2895.6	335.794
2894.96	351.358
2894.32	370.82
2893.68	362.957
2893.04	339.488
2892.4	335.534
2891.76	308.176
2891.12	351.032
2890.48	397.774
2889.83	370.419
2889.19	366.463
2888.55	354.712
2887.91	346.863
2887.27	374.086
2886.63	381.821
2885.98	370.075
2885.34	385.597
2884.7	327.123
2884.06	381.584
2883.42	397.098
2882.77	346.434
2882.13	373.623
2881.49	424.152
2880.85	369.617
2880.2	373.45
2879.56	377.281
2878.92	400.556
2878.28	377.164
2877.63	342.117
2876.99	388.709
2876.35	392.535
2875.7	411.904
2875.06	380.758
2874.42	450.623
2873.77	407.828
2873.13	376.697
2872.48	364.99
2871.84	372.698
2871.2	388.167
2870.55	395.869
2869.91	411.33
2869.26	399.626
2868.62	384.047
2867.98	360.716
2867.33	395.562
2866.69	418.766
2866.04	403.193
2865.4	379.873
2864.75	387.566
2864.11	476.632
2863.46	480.432
2862.82	453.241
2862.17	472.537
2861.52	445.355
2860.88	445.286
2860.23	414.245
2859.59	449.019
2858.94	448.949
2858.29	425.661
2857.65	460.417
2857	444.872
2856.36	413.86
2855.71	471.804
2855.06	421.465
2854.42	425.265
2853.77	429.065
2853.12	456.052
2852.48	394.153
2851.83	494.547
2851.18	459.703
2850.53	432.594
2849.89	428.665
2849.24	451.766
2848.59	409.229
2847.94	470.926
2847.3	420.68
2846.65	424.474
2846	447.557
2845.35	428.199
2844.7	447.418
2844.06	478.2
2843.41	458.847
2842.76	404.802
2842.11	462.559
2841.46	439.363
2840.81	423.881
2840.16	439.226
2839.52	439.158
2838.87	431.386
2838.22	415.915
2837.57	469.757
2836.92	461.984
2836.27	415.721
2835.62	496.479
2834.97	465.617
2834.32	407.832
2833.67	473.166
2833.02	457.707
2832.37	507.63
2831.72	438.34
2831.07	511.317
2830.42	434.359
2829.77	438.135
2829.12	449.595
2828.47	376.525
2827.82	491.712
2827.17	480.112
2826.51	506.92
2825.86	503.001
2825.21	460.693
2824.56	445.267
2823.91	433.684
2823.26	506.526
2822.61	514.12
2821.96	491.024
2821.3	444.921
2820.65	513.88
2820	483.126
2819.35	494.552
2818.7	505.974
2818.04	551.886
2817.39	559.464
2816.74	482.75
2816.09	475.013
2815.43	490.26
2814.78	490.184
2814.13	467.134
2813.47	551.285
2812.82	516.749
2812.17	482.224
2811.51	485.976
2810.86	497.378
2810.21	516.427
2809.55	508.697
2808.9	508.618
2808.25	447.361
2807.59	546.69
2806.94	496.913
2806.28	542.697
2805.63	531.149
2804.98	538.708
2804.32	508.064
2803.67	530.901
2803.01	473.536
2802.36	526.917
2801.7	534.47
2801.05	530.57
2800.39	568.652
2799.74	549.484
2799.08	534.137
2798.43	572.201
2797.77	488.202
2797.12	556.768
2796.46	522.366
2795.8	503.223
2795.15	522.203
2794.49	571.666
2793.84	502.987
2793.18	556.248
2792.52	506.64
2791.87	479.9
2791.21	578.836
2790.55	544.478
2789.9	601.497
2789.24	574.759
2788.58	509.972
2787.93	570.775
2787.27	566.881
2786.61	562.989
2785.95	604.738
2785.3	578.024
2784.64	551.318
2783.98	593.05
2783.32	509.335
2782.67	535.859
2782.01	588.973
2781.35	585.081
2780.69	581.191
2780.03	584.899
2779.38	535.441
2778.72	539.154
2778.06	512.496
2777.4	535.19
2776.74	519.926
2776.08	542.612
2775.42	591.848
2774.76	591.755
2774.11	565.114
2773.45	557.441
2772.79	576.312
2772.13	606.549
2771.47	568.551
2770.81	560.883
2770.15	629
2769.49	602.382
2768.83	643.955
2768.17	583.256
2767.51	571.805
2766.85	617.15
2766.19	594.34
2765.53	579.107
2764.87	631.998
2764.21	605.413
2763.55	650.717
2762.88	590.093
2762.22	582.437
2761.56	571.001
2760.9	601.159
2760.24	623.746
2759.58	555.614
2758.92	604.656
2758.26	597.004
2757.59	661.136
2756.93	630.814
2756.27	623.161
2755.61	611.735
2754.95	615.415
2754.28	615.319
2753.62	660.515
2752.96	600.031
2752.3	682.948
2751.63	607.389
2750.97	652.558
2750.31	633.599
2749.64	629.729
2748.98	644.711
2748.32	637.071
2747.65	648.278
2746.99	682.093
2746.33	629.236
2745.66	629.138
2745	745.807
2744.34	617.642
2743.67	591.187
2743.01	756.751
2742.34	707.696
2741.68	636.074
2741.02	602.106
2740.35	632.113
2739.69	662.109
2739.02	643.199
2738.36	718.314
2737.69	669.319
2737.03	676.733
2736.36	684.145
2735.7	684.038
2735.03	680.173
2734.37	698.853
2733.7	657.42
2733.04	604.731
2732.37	732.324
2731.7	702.17
2731.04	773.392
2730.37	619.367
2729.71	694.333
2729.04	679.214
2728.37	686.612
2727.71	716.515
2727.04	701.4
2726.37	675.038
2725.71	716.178
2725.04	693.572
2724.37	652.23
2723.71	719.589
2723.04	648.278
2722.37	711.87
2721.71	640.583
2721.04	707.901
2720.37	734.005
2719.7	662.747
2719.03	655.156
2718.37	703.714
2717.7	692.376
2717.03	718.461
2716.36	632.296
2715.69	748.162
2715.03	691.942
2714.36	725.49
2713.69	747.81
2713.02	743.954
2712.35	721.41
2711.68	796.043
2711.01	792.181
2710.34	605.251
2709.67	713.486
2709.01	683.495
2708.34	754.34
2707.67	787.826
2707	742.904
2706.33	705.461
2705.66	705.351
2704.99	708.971
2704.32	757.361
2703.65	757.242
2702.98	716.097
2702.31	768.191
2701.64	749.428
2700.96	805.229
2700.29	749.193
2699.62	782.616
2698.95	722.874
2698.28	715.309
2697.61	752.447
2696.94	763.502
2696.27	782.001
2695.6	722.306
2694.92	792.923
2694.25	718.357
2693.58	826.167
2692.91	751.619
2692.24	796.145
2691.57	773.701
2690.89	754.984
2690.22	777.177
2689.55	765.901
2688.88	750.911
2688.2	810.261
2687.53	769.255
2686.86	769.134
2686.18	739.293
2685.51	791.179
2684.84	772.485
2684.17	805.784
2683.49	813.082
2682.82	746.136
2682.14	753.442
2681.47	790.433
2680.8	805.15
2680.12	801.313
2679.45	838.279
2678.78	812.187
2678.1	797.227
2677.43	874.958
2676.75	837.752
2676.08	807.97
2675.4	863.428
2674.73	829.946
2674.05	833.52
2673.38	711.158
2672.7	822.147
2672.03	866.451
2671.35	866.315
2670.68	788.444
2670	888.248
2669.33	836.302
2668.65	869.469
2667.98	828.64
2667.3	835.907
2666.62	909.738
2665.95	894.804
2665.27	846.603
2664.59	835.38
2663.92	864.815
2663.24	864.679
2662.56	801.734
2661.89	893.958
2661.21	879.044
2660.53	886.291
2659.86	860.305
2659.18	863.861
2658.5	900.636
2657.83	948.472
2657.15	885.593
2656.47	966.62
2655.79	944.334
2655.11	899.927
2654.44	907.16
2653.76	966.01
2653.08	836.831
2652.4	895.673
2651.72	950.812
2651.05	895.391
2650.37	825.251
2649.69	924.577
2649.01	880.235
2648.33	957.427
2647.65	909.412
2646.97	887.181
2646.29	982.739
2645.61	975.223
2644.93	916.197
2644.25	930.768
2643.57	971.083
2642.9	890.019
2642.22	959.745
2641.54	948.564
2640.86	970.47
2640.18	1010.75
2639.49	955.465
2638.81	966.337
2638.13	815.562
2637.45	936.647
2636.77	980.569
2636.09	987.758
2635.41	965.574
2634.73	914.03
2634.05	932.237
2633.37	921.081
2632.69	1020
2632	968.48
2631.32	960.991
2630.64	993.846
2629.96	997.355
2629.28	934.873
2628.6	956.719
2627.91	934.577
2627.23	923.436
2626.55	923.291
2625.87	989.084
2625.18	988.927
2624.5	955.812
2623.82	951.999
2623.14	1028.73
2622.45	951.698
2621.77	1017.42
2621.09	907.487
2620.4	929.295
2619.72	936.464
2619.04	1071.64
2618.35	998.336
2617.67	998.178
2616.98	892.003
2616.3	924.759
2615.62	957.504
2614.93	975.622
2614.25	938.934
2613.56	1011.84
2612.88	949.593
2612.19	1040.74
2611.51	1051.52
2610.83	1018.5
2610.14	1000.09
2609.46	1010.88
2608.77	1007.07
2608.08	1043.4
2607.4	1057.82
2606.71	977.419
2606.03	1042.9
2605.34	995.339
2604.66	1086.32
2603.97	1115.3
2603.28	1104.19
2602.6	1016.57
2601.91	1056.48
2601.23	1063.6
2600.54	994.236
2599.85	1045.06
2599.17	1023.05
2598.48	1066.57
2597.79	1084.6
2597.11	1153.57
2596.42	1040.59
2595.73	1054.98
2595.04	1091.18
2594.36	1054.64
2593.67	1116.29
2592.98	1017.95
2592.29	1097.76
2591.61	1068.51
2590.92	1079.25
2590.23	1122.67
2589.54	1144.29
2588.85	1053.31
2588.16	1042.25
2587.48	1114.7
2586.79	1110.89
2586.1	1161.53
2585.41	1143.2
2584.72	1048.68
2584.03	1157.35
2583.34	1128.15
2582.65	1135.22
2581.96	1145.92
2581.27	1102.23
2580.58	1178.19
2579.9	1261.37
2579.21	1083.59
2578.52	1068.92
2577.83	1166.57
2577.14	1119.3
2576.44	1097.39
2575.75	1187.74
2575.06	1165.83
2574.37	1162.03
2573.68	1212.51
2572.99	1143.56
2572.3	1132.53
2571.61	1121.49
2570.92	1153.87
2570.23	1146.45
2569.54	1135.42
2568.84	1214.78
2568.15	1088.07
2567.46	1189.1
2566.77	1206.98
2566.08	1228.46
2565.39	1134.34
2564.69	1191.95
2564	1227.88
2563.31	1180.74
2562.62	1205.83
2561.92	1274.22
2561.23	1176.57
2560.54	1133.08
2559.85	1233.92
2559.15	1215.69
2558.46	1229.93
2557.77	1269.4
2557.07	1240.35
2556.38	1218.52
2555.69	1257.98
2554.99	1174.89
2554.3	1221.55
2553.6	1260.98
2552.91	1156.32
2552.22	1246.18
2551.52	1256.78
2550.83	1263.78
2550.13	1306.78
2549.44	1277.78
2548.74	1234.39
2548.05	1331.35
2547.35	1334.73
2546.66	1240.99
2545.96	1194.04
2545.27	1229.81
2544.57	1359.05
2543.88	1290.53
2543.18	1322.68
2542.49	1318.87
2541.79	1343.81
2541.1	1375.93
2540.4	1354.16
2539.7	1364.72
2539.01	1382.46
2538.31	1371.47
2537.61	1277.92
2536.92	1374.62
2536.22	1471.29
2535.52	1349.07
2534.83	1456.47
2534.13	1337.88
2533.43	1430.9
2532.74	1434.26
2532.04	1412.52
2531.34	1462.48
2530.64	1394.15
2529.95	1426.18
2529.25	1408.04
2528.55	1440.06
2527.85	1425.5
2527.15	1496.9
2526.46	1446.53
2525.76	1489.26
2525.06	1506.92
2524.36	1442.26
2523.66	1502.86
2522.96	1452.53
2522.26	1366.45
2521.57	1555.79
2520.87	1519.78
2520.17	1569.6
2519.47	1469.25
2518.77	1494.04
2518.07	1558.12
2517.37	1457.83
2516.67	1479.03
2515.97	1439.5
2515.27	1407.13
2514.57	1564.02
2513.87	1474.52
2513.17	1538.54
2512.47	1477.62
2511.77	1441.7
2511.07	1459.31
2510.37	1523.29
2509.66	1569.41
2508.96	1426.51
2508.26	1543.95
2507.56	1533.01
2506.86	1522.07
2506.16	1454.11
2505.46	1475.26
2504.76	1475.03
2504.05	1453.42
2503.35	1513.73
2502.65	1541.98
2501.95	1456.28
2501.25	1459.61
2500.54	1498.53
2499.84	1437.79
2499.14	1487.38
2498.44	1593.87
2497.73	1479.79
2497.03	1440.43
2496.33	1440.2
2495.62	1397.3
2494.92	1532.17
2494.22	1471.5
2493.51	1428.62
2492.81	1431.94
2492.11	1445.93
2491.4	1481.22
2490.7	1523.6
2489.99	1569.52
2489.29	1487.61
2488.59	1490.92
2487.88	1508.43
2487.18	1458.5
2486.47	1518.59
2485.77	1539.63
2485.06	1532.29
2484.36	1493.04
2483.65	1510.53
2482.95	1499.65
2482.24	1527.77
2481.54	1531.07
2480.83	1545
2480.13	1449.09
2479.42	1484.28
2478.71	1476.96
2478.01	1529.84
2477.3	1483.57
2476.6	1479.79
2475.89	1532.65
2475.18	1511.17
2474.48	1507.39
2473.77	1503.61
2473.06	1531.67
2472.36	1520.81
2471.65	1527.64
2470.94	1431.94
2470.24	1428.17
2469.53	1498.63
2468.82	1473.66
2468.11	1466.35
2467.41	1522.64
2466.7	1547.13
2465.99	1564.54
2465.28	1532.51
2464.57	1574.63
2463.87	1524.96
2463.16	1630.59
2462.45	1503.29
2461.74	1520.7
2461.03	1523.98
2460.32	1580.17
2459.61	1551.7
2458.9	1540.88
2458.2	1554.73
2457.49	1533.33
2456.78	1614.15
2456.07	1553.99
2455.36	1564.31
2454.65	1606.33
2453.94	1546.19
2453.23	1567.08
2452.52	1658.37
2451.81	1665.15
2451.1	1524.09
2450.39	1537.92
2449.68	1470.82
2448.97	1569.09
2448.26	1596.98
2447.55	1593.2
2446.83	1571.85
2446.12	1596.21
2445.41	1648.68
2444.7	1550.01
2443.99	1623.56
2443.28	1619.78
2442.57	1573.85
2441.85	1675.46
2441.14	1619
2440.43	1643.32
2439.72	1667.63
2439.01	1611.2
2438.29	1621.47
2437.58	1694.91
2436.87	1571.83
2436.16	1662.79
2435.44	1652
2434.73	1718.37
2434.02	1661.99
2433.3	1658.22
2432.59	1650.94
2431.88	1580.58
2431.16	1776.56
2430.45	1671.17
2429.74	1684.91
2429.02	1709.16
2428.31	1663.36
2427.6	1652.59
2426.88	1687.33
2426.17	1606.56
2425.45	1700.79
2424.74	1707.51
2424.02	1651.26
2423.31	1661.49
2422.59	1605.27
2421.88	1748.37
2421.16	1681.67
2420.45	1656.93
2419.73	1723.07
2419.02	1677.36
2418.3	1733
2417.59	1809.57
2416.87	1655.6
2416.16	1760.1
2415.44	1829.65
2414.72	1745.57
2414.01	1658.02
2413.29	1755.48
2412.57	1765.66
2411.86	1716.53
2411.14	1803.47
2410.42	1740.4
2409.71	1768.02
2408.99	1718.92
2408.27	1746.53
2407.56	1808.99
2406.84	1766.88
2406.12	1766.59
2405.4	1797.66
2404.69	1748.61
2403.97	1783.16
2403.25	1835.1
2402.53	1723.39
2401.81	1837.99
2401.1	1778.53
2400.38	1809.56
2399.66	1847.54
2398.94	1847.25
2398.22	1766.95
2397.5	1857.08
2396.78	1815.06
2396.06	1863.44
2395.35	1804.05
2394.63	1828.09
2393.91	1782.62
2393.19	1858.77
2392.47	1830.68
2391.75	1913.74
2391.03	1798.83
2390.31	1833.26
2389.59	1947.53
2388.87	1839.62
2388.15	1849.73
2387.43	1856.37
2386.71	1956.68
2385.98	1880.06
2385.26	1952.59
2384.54	1955.74
2383.82	1903.42
2383.1	1878.85
2382.38	1906.27
2381.66	1860.91
2380.94	1853.68
2380.21	1888.03
2379.49	1925.82
2378.77	1939.37
2378.05	1873.26
2377.33	1921.43
2376.6	1910.74
2375.88	1951.96
2375.16	1844.37
2374.44	1906.35
2373.71	1995.99
2372.99	1974.91
2372.27	1929.64
2371.55	2050.34
2370.82	1915.19
2370.1	2011.66
2369.38	1852.36
2368.65	1917.72
2367.93	2048.69
2367.21	1903.28
2366.48	1982.41
2365.76	1930.29
2365.03	2005.94
2364.31	2005.61
2363.58	2019.1
2362.86	2084.34
2362.14	1980.49
2361.41	1907.73
2360.69	1869.48
2359.96	2041.61
2359.24	2030.93
2358.51	2103
2357.79	2016.49
2357.06	2029.95
2356.33	2070.97
2355.61	1963.83
2354.88	2018.63
2354.16	2011.42
2353.43	1907.78
2352.71	2031.43
2351.98	2031.1
2351.25	2034.21
2350.53	2006.35
2349.8	1985.38
2349.07	2050.43
2348.35	2074.18
2347.62	2046.33
2346.89	2042.56
2346.17	2066.3
2345.44	2072.84
2344.71	1983.14
2343.98	2096.22
2343.26	2089.01
2342.53	2123.03
2341.8	2091.77
2341.07	2081.13
2340.34	2128.86
2339.62	2018.66
2338.89	2032.07
2338.16	2158.72
2337.43	2069.15
2336.7	2109.99
2335.97	2051.33
2335.24	2119.6
2334.52	2081.53
2333.79	2166.91
2333.06	2180.27
2332.33	2179.92
2331.6	2155.58
2330.87	2206.63
2330.14	2120.62
2329.41	2003.82
2328.68	2102.81
2327.95	2191.5
2327.22	2204.84
2326.49	2242.14
2325.76	2163.06
2325.03	2128.49
2324.3	2152.1
2323.57	2264.64
2322.83	2158.24
2322.1	2253.64
2321.37	2273.79
2320.64	2283.68
2319.91	2235.46
2319.18	2259.02
2318.45	2309.91
2317.71	2230.96
2316.98	2285.25
2316.25	2315.62
2315.52	2158.16
2314.79	2195.37
2314.05	2311.08
2313.32	2300.47
2312.59	2184.06
2311.86	2289.48
2311.12	2173.12
2310.39	2135.25
2309.66	2175.83
2308.92	2253.9
2308.19	2342.18
2307.46	2352.03
2306.72	2228.95
2305.99	2289.93
2305.26	2228.23
2304.52	2381.16
2303.79	2254.75
2303.05	2233.95
2302.32	2216.57
2301.59	2233.23
2300.85	2198.83
2300.12	2412.88
2299.38	2279.78
2298.65	2310.03
2297.91	2350.47
2297.18	2251.46
2296.44	2319.11
2295.71	2179.34
2294.97	2223.17
2294.24	2355.37
2293.5	2266.63
2292.76	2402.17
2292.03	2269.29
2291.29	2316.48
2290.56	2231.2
2289.82	2404.01
2289.08	2339.11
2288.35	2236.9
2287.61	2355.32
2286.87	2185.28
2286.14	2330.81
2285.4	2367.74
2284.66	2326.66
2283.93	2390.71
2283.19	2339.47
2282.45	2328.92
2281.71	2437
2280.98	2324.77
2280.24	2307.45
2279.5	2320.63
2278.76	2357.51
2278.02	2451.95
2277.29	2380.45
2276.55	2349.59
2275.81	2383.06
2275.07	2402.98
2274.33	2453.35
2273.59	2436.03
2272.85	2344.3
2272.11	2513.03
2271.37	2424.7
2270.64	2404.02
2269.9	2366.44
2269.16	2352.54
2268.42	2436.64
2267.68	2422.73
2266.94	2385.17
2266.2	2448.96
2265.46	2502.6
2264.72	2434.66
2263.98	2403.88
2263.23	2464.25
2262.49	2433.47
2261.75	2422.95
2261.01	2483.29
2260.27	2418.79
2259.53	2472.37
2258.79	2515.8
2258.05	2437.84
2257.31	2565.56
2256.56	2453.9
2255.82	2470.35
2255.08	2459.84
2254.34	2540.3
2253.6	2435.46
2252.85	2499.06
2252.11	2626.62
2251.37	2518.45
2250.63	2504.57
2249.88	2446.95
2249.14	2547.5
2248.4	2520.17
2247.65	2465.94
2246.91	2448.72
2246.17	2592.93
2245.42	2434.47
2244.68	2497.95
2243.94	2675.7
2243.19	2560.99
2242.45	2550.49
2241.71	2479.52
2240.96	2593.33
2240.22	2717.18
2239.47	2713.38
2238.73	2585.35
2237.98	2595
2237.24	2621.43
2236.49	2597.51
2235.75	2576.95
2235	2606.73
2234.26	2589.53
2233.51	2592.46
2232.77	2699.34
2232.02	2605.03
2231.28	2638.13
2230.53	2634.34
2229.78	2647.32
2229.04	2623.43
2228.29	2686.65
2227.54	2612.53
2226.8	2739.36
2226.05	2728.87
2225.3	2674.86
2224.56	2727.98
2223.81	2617.09
2223.06	2696.97
2222.32	2666.42
2221.57	2709.47
2220.82	2555.18
2220.07	2648.4
2219.33	2731.55
2218.58	2744.48
2217.83	2830.93
2217.08	2660.04
2216.33	2659.6
2215.59	2846.24
2214.84	2705.49
2214.09	2728.43
2213.34	2734.66
2212.59	2811
2211.84	2730.43
2211.09	2860.14
2210.34	2853
2209.59	2849.2
2208.84	2942.14
2208.09	2831.59
2207.35	2731.09
2206.6	2854.01
2205.85	2793.54
2205.1	2829.74
2204.35	2769.3
2203.59	2832.15
2202.84	2845.01
2202.09	2847.88
2201.34	2800.79
2200.59	2933.52
2199.84	2766.58
2199.09	2885.96
2198.34	2895.48
2197.59	2898.33
2196.84	2801.37
2196.09	2897.38
2195.33	2903.56
2194.58	2939.67
2193.83	3038.93
2193.08	2915.43
2192.33	2772.03
2191.57	2864.63
2190.82	2904.04
2190.07	2827.15
2189.32	2863.23
2188.56	2939.14
2187.81	2998.43
2187.06	2984.66
2186.3	2887.91
2185.55	2904.03
2184.8	2933.42
2184.04	2850
2183.29	2962.32
2182.54	2995
2181.78	2908.29
2181.03	3057.01
2180.27	2864.24
2179.52	2936.69
2178.77	2836.79
2178.01	2948.98
2177.26	2902.12
2176.5	3097.07
2175.75	3030.33
2174.99	3056.32
2174.24	3092.24
2173.48	2982.5
2172.73	2965.46
2171.97	3034.47
2171.22	3027.35
2170.46	3059.94
2169.7	2960.21
2168.95	3042.4
2168.19	3081.58
2167.44	2971.98
2166.68	3189.64
2165.92	3010.66
2165.17	3036.6
2164.41	3085.66
2163.65	2992.67
2162.9	3051.62
2162.14	3143.58
2161.38	3096.84
2160.62	3122.75
2159.87	2953.91
2159.11	3055.72
2158.35	3164.1
2157.59	3120.7
2156.83	3189.45
2156.08	3149.35
2155.32	3122.46
2154.56	3029.64
2153.8	3025.85
2153.04	3124.22
2152.28	3192.9
2151.53	3218.73
2150.77	3251.15
2150.01	3138.64
2149.25	3217.15
2148.49	3177.11
2147.73	3100.88
2146.97	3120.12
2146.21	3139.35
2145.45	3230.96
2144.69	3210.69
2143.93	3249.64
2143.17	3147.16
2142.41	3107.18
2141.65	3248.04
2140.89	3221.21
2140.13	3164.81
2139.37	3072.28
2138.61	3180.2
2137.85	3136.97
2137.08	3218.56
2136.32	3126.09
2135.56	3220.79
2134.8	3190.72
2134.04	3295.22
2133.28	3179.82
2132.51	3251.48
2131.75	3205.02
2130.99	3270.09
2130.23	3318.75
2129.47	3272.3
2128.7	3360.27
2127.94	3222.05
2127.18	3339.51
2126.41	3227.55
2125.65	3282.71
2124.89	3301.83
2124.12	3284.91
2123.36	3294.19
2122.6	3349.31
2121.83	3440.41
2121.07	3403.85
2120.31	3386.92
2119.54	3301.3
2118.78	3271.31
2118.01	3355.82
2117.25	3410.86
2116.48	3485.5
2115.72	3390.12
2114.95	3432.06
2114.19	3307.3
2113.42	3319.83
2112.66	3391.16
2111.89	3338.34
2111.13	3448.83
2110.36	3402.54
2109.6	3450.96
2108.83	3394.9
2108.07	3426.98
2107.3	3400.3
2106.53	3412.8
2105.77	3444.86
2105	3392.1
2104.23	3345.89
2103.47	3338.82
2102.7	3429.55
2101.93	3451.8
2101.17	3438.19
2100.4	3427.85
2099.63	3352.36
2098.86	3511.41
2098.1	3458.73
2097.33	3422.34
2096.56	3398.98
2095.79	3531.89
2095.02	3485.74
2094.26	3449.37
2093.49	3494.35
2092.72	3448.23
2091.95	3519.22
2091.18	3434.09
2090.41	3560.33
2089.64	3471.97
2088.87	3585.16
2088.11	3519.57
2087.34	3489.74
2086.57	3612.62
2085.8	3638.01
2085.03	3591.94
2084.26	3487.44
2083.49	3486.87
2082.72	3518.75
2081.95	3602.56
2081.18	3481.9
2080.41	3620.84
2079.63	3548.87
2078.86	3554.77
2078.09	3589.86
2077.32	3569.81
2076.55	3611.37
2075.78	3633.46
2075.01	3519.43
2074.24	3544.77
2073.47	3596.02
2072.69	3514.45
2071.92	3591.6
2071.15	3642.81
2070.38	3619.55
2069.6	3638.37
2068.83	3644.25
2068.06	3676
2067.29	3558.92
2066.51	3619.8
2065.74	3654.78
2064.97	3621.83
2064.19	3605.07
2063.42	3559.22
2062.65	3710.54
2061.87	3690.54
2061.1	3563.91
2060.33	3728.08
2059.55	3856.67
2058.78	3626.74
2058	3697.18
2057.23	3580.34
2056.46	3631.4
2055.68	3621.11
2054.91	3814.12
2054.13	3661.86
2053.36	3728.99
2052.58	3702.57
2051.81	3821.28
2051.03	3559.49
2050.26	3807.12
2049.48	3745.25
2048.7	3673.73
2047.93	3866.45
2047.15	3778.83
2046.38	3749.21
2045.6	3803.34
2044.82	3834.91
2044.05	3882.57
2043.27	3904.46
2042.49	3765.42
2041.72	3883.86
2040.94	3793.13
2040.16	3708.87
2039.38	3852.98
2038.61	3916.66
2037.83	3777.76
2037.05	3854.29
2036.27	3631.88
2035.5	3779.1
2034.72	3871.65
2033.94	3758.57
2033.16	3892.85
2032.38	3847.25
2031.6	3897.98
2030.83	3865.23
2030.05	3877.43
2029.27	3924.93
2028.49	3895.4
2027.71	3949.29
2026.93	3939.02
2026.15	3864.6
2025.37	3976.19
2024.59	3892.17
2023.81	3811.39
2023.03	3929.34
2022.25	3951.13
2021.47	3902.41
2020.69	3821.68
2019.91	3955.57
2019.13	4022.16
2018.35	3992.68
2017.57	4065.64
2016.79	3975.35
2016	3955.49
2015.22	3942.03
2014.44	4030.96
2013.66	3966.32
2012.88	4004.03
2012.1	4038.54
2011.31	3986.72
2010.53	4193.83
2009.75	4244.27
2008.97	4134.92
2008.19	3964.91
2007.4	4235.77
2006.62	4030.66
2005.84	4122.6
2005.05	4204.93
2004.27	4012.69
2003.49	4082.25
2002.7	4126.25
2001.92	4087.27
2001.14	4233.34
2000.35	4194.36
1999.57	4059.72
1998.79	4126.01
1998	4080.69
1997.22	4201.14
1996.43	4066.59
1995.65	4180.63
1994.86	4262.77
1994.08	4156.94
1993.29	4267.72
1992.51	4098.24
1991.72	4208.99
1990.94	4096.88
1990.15	4010.26
1989.37	4194.17
1988.58	4142.56
1987.8	4106.88
1987.01	4242.97
1986.22	4226.36
1985.44	4165.25
1984.65	4352.12
1983.86	4189.29
1983.08	4175.88
1982.29	4276.86
1981.5	4225.32
1980.72	4323.09
1979.93	4312.84
1979.14	4337.53
1978.35	4317.76
1977.57	4339.26
1976.78	4287.76
1975.99	4337.82
1975.2	4216.53
1974.42	4412.51
1973.63	4351.51
1972.84	4430.06
1972.05	4229.58
1971.26	4165.47
1970.47	4377.14
1969.68	4198.95
1968.89	4344
1968.11	4305.26
1967.32	4434.41
1966.53	4427.34
1965.74	4382.27
1964.95	4530.33
1964.16	4406.13
1963.37	4383.25
1962.58	4420.49
1961.79	4473.53
1961	4425.34
1960.21	4506.83
1959.42	4357.46
1958.63	4546.43
1957.83	4564.64
1957.04	4500.67
1956.25	4379.84
1955.46	4480.21
1954.67	4558.44
1953.88	4428.19
1953.09	4541.13
1952.3	4483.54
1951.5	4520.68
1950.71	4500.99
1949.92	4528.64
1949.13	4401.67
1948.33	4460.88
1947.54	4520.07
1946.75	4673.85
1945.96	4565.86
1945.16	4618.69
1944.37	4662.05
1943.58	4604.55
1942.78	4565.96
1941.99	4562.05
1941.2	4605.39
1940.4	4576.28
1939.61	4644.79
1938.81	4552.71
1938.02	4671.57
1937.23	4667.65
1936.43	4610.22
1935.64	4530.8
1934.84	4624.42
1934.05	4724.29
1933.25	4682.62
1932.46	4618.96
1931.66	4715.64
1930.87	4724.28
1930.07	4597.79
1929.28	4543.6
1928.48	4756.48
1927.68	4805.94
1926.89	4670.09
1926.09	4681.87
1925.3	4750.16
1924.5	4727.39
1923.7	4632.45
1922.91	4760.33
1922.11	4706.2
1921.31	4906.18
1920.52	4783.04
1919.72	4659.94
1918.92	4797.12
1918.12	4730.48
1917.33	4619.99
1916.53	4791.58
1915.73	4803.31
1914.93	4714.79
1914.13	4886.28
1913.34	4897.99
1912.54	4706.17
1911.74	4858.78
1910.94	4704.59
1910.14	4825.86
1909.34	4834.44
1908.54	4649.05
1907.74	4620.12
1906.94	4835.14
1906.14	4837.46
1905.35	4864.79
1904.55	4848.35
1903.75	4831.91
1902.95	4824.85
1902.15	4827.17
1901.35	4851.35
1900.54	4978.6
1899.74	4902.81
1898.94	4864.53
1898.14	4879.32
1897.34	4928.44
1896.54	4921.38
1895.74	4814.47
1894.94	4985.24
1894.14	5059.27
1893.33	4949.27
1892.53	4960.91
1891.73	4891.5
1890.93	5009.13
1890.13	4936.61
1889.32	5166.37
1888.52	4966.11
1887.72	5114.8
1886.92	5085.91
1886.11	5047.69
1885.31	5034.39
1884.51	5017.98
1883.7	5066.94
1882.9	5038.08
1882.1	4968.79
1881.29	4955.51
1880.49	5107.09
1879.69	5103.12
1878.88	5161.34
1878.08	5116.95
1877.27	4997.99
1876.47	5146.32
1875.66	5105.06
1874.86	5119.74
1874.06	5069.18
1873.25	5111.81
1872.45	5179.26
1871.64	5193.92
1870.83	5075.09
1870.03	5092.86
1869.22	5169.58
1868.42	5187.33
1867.61	5158.54
1866.81	5449.21
1866	5262.24
1865.19	5193.15
1864.39	5083.79
1863.58	5262.69
1862.77	5292.8
1861.97	5251.63
1861.16	5188.8
1860.35	5101.2
1859.54	5211.83
1858.74	5176.9
1857.93	5114.11
1857.12	5193.73
1856.31	5310.45
1855.51	5334.31
1854.7	5348.89
1853.89	5295.41
1853.08	5285.24
1852.27	5389.48
1851.46	5298.92
1850.66	5304.21
1849.85	5297.14
1849.04	5364.23
1848.23	5295.36
1847.42	5362.43
1846.61	5426.38
1845.8	5391.51
1844.99	5362.81
1844.18	5395.87
1843.37	5379.53
1842.56	5421.83
1841.75	5494.96
1840.94	5420
1840.13	5234.04
1839.32	5513.78
1838.51	5552.93
1837.7	5462.6
1836.89	5566.48
1836.07	5494.66
1835.26	5392.06
1834.45	5440.44
1833.64	5393.33
1832.83	5512.52
1832.02	5557.78
1831.2	5498.35
1830.39	5614.4
1829.58	5570.37
1828.77	5674.05
1827.95	5728.47
1827.14	5752.11
1826.33	5714.24
1825.52	5867.03
1824.7	5681.57
1823.89	5865.05
1823.08	5778.01
1822.26	5792.4
1821.45	5803.71
1820.63	5851.89
1819.82	5746.48
1819.01	5843.77
1818.19	5809.02
1817.38	5949.25
1816.56	5816.27
1815.75	5910.42
1814.93	5866.47
1814.12	5929.9
1813.3	5879.83
1812.49	5863.51
1811.67	5847.19
1810.86	5910.58
1810.04	5731.81
1809.23	5801.33
1808.41	5800.35
1807.59	5765.67
1806.78	5893.35
1805.96	5858.67
1805.15	5799.5
1804.33	6009.77
1803.51	5935.29
1802.7	5891.44
1801.88	5697.67
1801.06	5647.76
1800.24	5707.99
1799.43	5853.83
1798.61	5779.45
1797.79	5772.36
1796.97	5814.18
1796.16	5822.37
1795.34	5879.45
1794.52	5789.85
1793.7	6002.71
1792.88	5797.06
1792.06	5854.11
1791.24	5685.19
1790.43	5910.13
1789.61	5762.63
1788.79	6018
1787.97	5843.07
1787.15	5869.54
1786.33	5825.84
1785.51	5779.11
1784.69	5741.55
1783.87	5908.25
1783.05	5879.82
1782.23	5927.59
1781.41	5798.61
1780.59	5834.19
1779.77	5997.69
1778.95	6014.95
1778.13	5956.08
1777.3	5958.12
1776.48	6078.87
1775.66	5883.06
1774.84	5897.28
1774.02	5941.92
1773.2	5886.17
1772.37	6131.53
1771.55	5935.87
1770.73	6004.8
1769.91	6052.42
1769.08	5987.57
1768.26	6126.35
1767.44	6140.5
1766.62	5935.93
1765.79	6029.08
1764.97	6006.8
1764.15	6063.48
1763.32	6029.06
1762.5	6191.94
1761.68	6075.58
1760.85	6041.17
1760.03	6125.09
1759.2	6063.39
1758.38	6129.09
1757.55	6058.31
1756.73	6026.97
1755.91	6147.19
1755.08	6249.2
1754.26	6214.81
1753.43	6283.44
1752.6	6267.23
1751.78	6360.05
1750.95	6092.5
1750.13	6206.52
1749.3	6214.55
1748.48	6131.78
1747.65	6260.86
1746.82	6105.5
1746	6379.74
1745.17	6067.14
1744.34	6265.69
1743.52	6143.69
1742.69	6112.42
1741.86	6196.02
1741.04	6137.55
1740.21	6088.17
1739.38	6283.5
1738.55	6179.74
1737.72	6323.64
1736.9	6253.13
1736.07	6291.31
1735.24	6284.21
1734.41	6373.68
1733.58	6366.56
1732.75	6302.13
1731.93	6307.1
1731.1	6143.17
1730.27	6422.55
1729.44	6219.48
1728.61	6381.19
1727.78	6265.59
1726.95	6379.03
1726.12	6438.2
1725.29	6461.2
1724.46	6195.08
1723.63	6489.12
1722.8	6442.86
1721.97	6393.61
1721.14	6320.29
1720.31	6289.13
1719.48	6339.21
1718.65	6434.39
1717.81	6478.41
1716.98	6420.18
1716.15	6512.29
1715.32	6487.14
1714.49	6471.01
1713.66	6466.91
1712.82	6534.91
1711.99	6470.72
1711.16	6250.36
1710.33	6375.43
1709.49	6467.42
1708.66	6433.3
1707.83	6510.25
1707	6302.07
1706.16	6589.05
1705.33	6473.93
1704.5	6421.84
1703.66	6657.67
1702.83	6377.68
1701.99	6535.49
1701.16	6480.42
1700.33	6524.27
1699.49	6586.09
1698.66	6719.79
1697.82	6517.95
1696.99	6702.53
1696.15	6662.46
1695.32	6685.28
1694.48	6654.21
1693.65	6500.44
1692.81	6586.11
1691.98	6564.05
1691.14	6589.86
1690.3	6705.38
1689.47	6752.08
1688.63	6780.83
1687.8	6755.76
1686.96	6772.55
1686.12	6756.45
1685.29	6994.32
1684.45	6748.18
1683.61	6776.9
1682.78	6721.99
1681.94	7025.39
1681.1	6857.02
1680.26	6873.77
1679.43	6765.16
1678.59	6877.39
1677.75	7022.4
1676.91	6872.07
1676.07	7025.97
1675.23	6956.2
1674.4	6946.07
1673.56	7037.28
1672.72	7104.63
1671.88	7043.83
1671.04	6920.48
1670.2	7217.16
1669.36	7198.07
1668.52	7113.47
1667.68	7159.89
1666.84	7137.83
1666	7231.85
1665.16	7171.11
1664.32	7259.14
1663.48	7231.13
1662.64	7351.83
1661.8	7341.66
1660.96	7435.54
1660.12	7490.75
1659.28	7326.02
1658.44	7303.97
1657.59	7599.82
1656.75	7289.59
1655.91	7291.32
1655.07	7542.48
1654.23	7606.51
1653.38	7614.12
1652.54	7541.59
1651.7	7531.4
1650.86	7622.09
1650.01	7689.02
1649.17	7601.7
1648.33	7487.71
1647.48	7587.24
1646.64	7425.87
1645.8	7350.5
1644.95	7361.1
1644.11	7478.36
1643.27	7379.33
1642.42	7582.44
1641.58	7433.07
1640.73	7579.85
1639.89	7584.47
1639.04	7592.06
1638.2	7546.37
1637.36	7450.4
1636.51	7638.46
1635.67	7687.44
1634.82	7523.47
1633.97	7687.77
1633.13	7580.03
1632.28	7670.37
1631.44	7462.18
1630.59	7452.04
1629.74	7586.67
1628.9	7570.6
1628.05	7637.23
1627.2	7588.68
1626.36	7611.01
1625.51	7656.93
1624.66	7502.16
1623.82	7707.43
1622.97	7546.8
1622.12	7781.49
1621.27	7718.22
1620.43	7663.83
1619.58	7854.15
1618.73	7649.41
1617.88	7609.79
1617.03	7723.41
1616.19	7772.18
1615.34	7655.96
1614.49	7775.41
1613.64	7620.95
1612.79	7864.02
1611.94	7989.25
1611.09	7720.05
1610.24	7848.21
1609.39	7782.14
1608.54	8001.43
1607.69	7853.01
1606.84	8089.86
1605.99	8044.37
1605.14	8107.67
1604.29	8103.34
1603.44	8072.56
1602.59	8215.15
1601.74	8119.74
1600.89	8470.81
1600.04	8625
1599.18	8632.33
1598.33	8762.96
1597.48	8855.38
1596.63	8809.85
1595.78	9028.4
1594.92	9114.86
1594.07	9318.62
1593.22	9580.96
1592.37	9485.49
1591.51	9914.82
1590.66	10127.1
1589.81	10342.2
1588.96	10762.4
1588.1	11179.5
1587.25	11693.1
1586.39	12294.4
1585.54	13091.7
1584.69	14187.3
1583.83	15516.7
1582.98	16983.2
1582.12	18642.3
1581.27	20412
1580.42	22605.3
1579.56	24783.2
1578.71	26632.8
1577.85	27715.8
1576.99	28552.9
1576.14	29550.5
1575.28	28803.2
1574.43	28684.3
1573.57	28001.7
1572.72	27036
1571.86	26032.7
1571	24641.4
1570.15	23201
1569.29	21466.3
1568.43	20064.8
1567.58	18424.6
1566.72	17202.1
1565.86	15726.3
1565.01	14525
1564.15	13837.4
1563.29	12925.5
1562.43	12223.8
1561.58	11545.6
1560.72	10891
1559.86	10737.6
1559	10371.7
1558.14	10055.4
1557.28	9721.78
1556.42	9842.38
1555.57	9762.1
1554.71	9510.15
1553.85	9316.49
1552.99	9416.7
1552.13	9569.24
1551.27	9291.33
1550.41	9461.28
1549.55	9131.15
1548.69	9094.7
1547.83	9078.61
1546.97	8905.62
1546.11	8735.59
1545.25	8690.52
1544.39	8648.37
1543.53	8664.3
1542.66	8564.1
1541.8	8556.83
1540.94	8691.75
1540.08	8405.9
1539.22	8300.01
1538.36	8298.59
1537.49	8308.76
1536.63	8263.83
1535.77	8378.38
1534.91	8159.54
1534.04	8395.78
1533.18	8165.42
1532.32	8439.24
1531.46	8472.55
1530.59	8384.2
1529.73	8495.69
1528.87	8204.72
1528	8191.72
1527.14	8167.16
1526.27	8255.46
1525.41	8146.99
1524.55	8255.5
1523.68	8256.97
1522.82	8275.79
1521.95	8303.28
1521.09	8316.3
1520.22	8271.51
1519.36	8160.28
1518.49	8184.88
1517.63	8192.13
1516.76	8439.1
1515.89	8290.38
1515.03	8190.79
1514.16	8258.65
1513.3	8216.82
1512.43	8108.64
1511.56	8213.99
1510.7	8356.8
1509.83	8294.8
1508.96	8379.87
1508.1	8251.57
1507.23	8192.49
1506.36	8294.84
1505.49	8420.2
1504.63	8297.74
1503.76	8325.11
1502.89	8176.79
1502.02	8523.82
1501.15	8329.44
1500.29	8353.91
1499.42	8447.45
1498.55	8345.27
1497.68	8381.24
1496.81	8256.09
1495.94	8283.43
1495.07	8445.91
1494.2	8263.32
1493.33	8365.38
1492.46	8398.42
1491.59	8328
1490.72	8455.86
1489.85	8491.75
1488.98	8628.15
1488.11	8684.09
1487.24	8375.37
1486.37	8485.88
1485.5	8386.82
1484.63	8454.25
1483.76	8728.24
1482.88	8494.36
1482.01	8461.34
1481.14	8560.25
1480.27	8444.08
1479.4	8497.09
1478.53	8664.73
1477.65	8671.83
1476.78	8481.22
1475.91	8777.69
1475.03	8804.81
1474.16	8717.38
1473.29	8595.61
1472.42	8700.05
1471.54	8818.76
1470.67	8708.49
1469.79	8904.41
1468.92	8748.39
1468.05	8663.92
1467.17	8785.4
1466.3	8723.83
1465.42	8742.33
1464.55	8809.42
1463.67	8730.73
1462.8	8512.06
1461.92	8507.73
1461.05	8769.04
1460.17	8673.28
1459.3	8554.71
1458.42	8576.07
1457.55	8688.76
1456.67	8684.4
1455.79	8588.73
1454.92	8615.78
1454.04	8919.49
1453.17	8658.42
1452.29	8597.04
1451.41	8692.48
1450.53	8645.37
1449.66	8777.82
1448.78	8696.52
1447.9	8769.08
1447.02	8707.74
1446.15	8606.56
1445.27	8852.79
1444.39	8669.05
1443.51	8784.26
1442.63	8708.74
1441.76	8619.02
1440.88	8719.94
1440	8772.48
1439.12	8810.77
1438.24	8783.65
1437.36	8898.69
1436.48	8712.38
1435.6	8779.08
1434.72	8712.2
1433.84	8639.67
1432.96	8822.8
1432.08	8977.48
1431.2	8723.2
1430.32	8809.69
1429.44	8748.56
1428.56	8815.15
1427.68	8762.54
1426.8	8778.05
1425.91	8708.44
1425.03	8854.41
1424.15	8784.82
1423.27	8956.24
1422.39	8934.84
1421.51	8953.13
1420.62	8974.24
1419.74	8890.52
1418.86	9146.75
1417.98	9023.38
1417.09	9154.9
1416.21	8807.9
1415.33	9038.49
1414.44	8818.99
1413.56	9069.31
1412.68	8886.66
1411.79	9060.5
1410.91	8829.84
1410.02	8961.21
1409.14	8953.99
1408.26	8935.48
1407.37	9035.67
1406.49	8805.21
1405.6	8908.21
1404.72	9067.68
1403.83	8975.73
1402.95	8996.76
1402.06	9082.71
1401.18	9092.43
1400.29	9054.15
1399.4	9103.37
1398.52	9079.22
1397.63	9091.74
1396.75	9169.13
1395.86	9080.12
1394.97	9219.51
1394.08	9048.77
1393.2	9224.76
1392.31	9285.15
1391.42	9176.47
1390.54	9386.14
1389.65	9249.32
1388.76	9323.74
1387.87	9310.86
1386.98	9227.6
1386.1	9147.19
1385.21	9100.57
1384.32	9172.14
1383.43	9167.73
1382.54	9129.57
1381.65	9060.49
1380.76	9295.08
1379.87	9262.54
1378.98	9210.34
1378.09	9149.72
1377.21	9238.03
1376.32	9062.26
1375.43	9243.24
1374.53	9188.27
1373.64	9094.02
1372.75	9260.86
1371.86	9082.43
1370.97	9198.71
1370.08	9306.53
1369.19	9299.29
1368.3	9331.33
1367.41	9368.96
1366.52	9457.05
1365.62	9247.96
1364.73	9305.2
1363.84	9253.14
1362.95	9203.89
1362.05	9342.35
1361.16	9402.34
1360.27	9543.52
1359.38	9371.06
1358.48	9397.42
1357.59	9490.94
1356.7	9287.8
1355.8	9193.85
1354.91	9376.88
1354.02	9428.38
1353.12	9390.38
1352.23	9195.82
1351.33	9490.53
1350.44	9486.08
1349.54	9422.95
1348.65	9438.07
1347.75	9380.55
1346.86	9476.66
1345.96	9273.95
1345.07	9339.34
1344.17	9399.12
1343.28	9160.24
1342.38	9256.31
1341.49	9385.82
1340.59	9612.93
1339.69	9321.18
1338.8	9364.17
1337.9	9390.42
1337	9321.87
1336.11	9272.86
1335.21	9494.18
1334.31	9300.27
1333.41	9312.57
1332.52	9491.98
1331.62	9376.15
1330.72	9533.21
1329.82	9353.38
1328.92	9591.11
1328.03	9266.63
1327.13	9292.83
1326.23	9260.61
1325.33	9242.3
1324.43	9385.29
1323.53	9403.11
1322.63	9459.84
1321.73	9296.98
1320.83	9370.38
1319.93	9440.98
1319.03	9481
1318.13	9279.36
1317.23	9388.82
1316.33	9412.16
1315.43	9479.91
1314.53	9225.69
1313.63	9479.37
1312.73	9458.29
1311.83	9431.67
1310.93	9335.71
1310.03	9375.67
1309.12	9307.49
1308.22	9267.05
1307.32	9553.67
1306.42	9646.22
1305.52	9497.69
1304.61	9507.1
1303.71	9757.47
1302.81	9683.77
1301.9	9759.59
1301	9724.66
1300.1	9725.73
1299.19	9760
1298.29	9714.02
1297.39	9676.35
1296.48	9710.61
1295.58	9672.96
1294.68	9828.86
1293.77	9727.62
1292.87	9712.09
1291.96	9624.73
1291.06	9689.35
1290.15	9596.49
1289.25	9445.67
1288.34	9548.94
1287.44	9577.64
1286.53	9650.49
1285.62	9629.48
1284.72	9608.47
1283.81	9559.88
1282.91	9555.44
1282	9476.54
1281.09	9386.64
1280.19	9660.7
1279.28	9421.94
1278.37	9690.38
1277.46	9564.67
1276.56	9656.67
1275.65	9495.21
1274.74	9617.47
1273.83	9615.79
1272.93	9680.17
1272.02	9694.99
1271.11	9803.37
1270.2	9683.33
1269.29	10022.8
1268.38	10111.8
1267.47	10112.8
1266.57	10210
1265.66	10109.2
1264.75	10272.4
1263.84	10179.9
1262.93	10318.2
1262.02	10264.2
1261.11	10215.7
1260.2	10277.1
1259.29	10209.4
1258.38	10279
1257.47	10411.6
1256.55	10385.1
1255.64	10391.5
1254.73	10236.1
1253.82	10223.3
1252.91	10144.7
1252	10225.2
1251.09	9943.74
1250.17	9983.1
1249.26	9863.5
1248.35	9974.11
1247.44	9914.82
1246.52	10050
1245.61	9708.67
1244.7	9772.68
1243.78	9880.47
1242.87	9856.83
1241.96	9896.15
1241.04	9960.07
1240.13	9985.68
1239.22	9901.86
1238.3	9864.56
1237.39	9898.37
1236.47	9962.24
1235.56	9750.02
1234.64	9781.1
1233.73	9820.36
1232.81	9835.02
1231.9	9789.58
1230.98	9779.67
1230.07	9868.05
1229.15	9899.07
1228.24	9960.11
1227.32	9797.34
1226.4	9874.74
1225.49	9837.53
1224.57	10089.5
1223.65	9839.52
1222.74	9644.19
1221.82	9956
1220.9	9954.25
1219.99	9821.68
1219.07	9789.98
1218.15	9905.39
1217.23	9998.98
1216.31	10043.5
1215.4	10022.7
1214.48	10069.9
1213.56	9793.23
1212.64	9690.81
1211.72	9972.08
1210.8	10000.2
1209.88	9881.52
1208.96	10105.5
1208.05	9997.67
1207.13	9922.5
1206.21	10170.8
1205.29	9897.26
1204.37	9971.59
1203.45	9923.65
1202.53	9870.29
1201.6	10102.1
1200.68	10005.3
1199.76	9889.49
1198.84	10053.3
1197.92	10246.9
1197	9908.67
1196.08	10183.6
1195.16	10276.8
1194.23	10193.6
1193.31	10058.9
1192.39	10550.5
1191.47	10578.5
1190.54	10666
1189.62	11181.6
1188.7	11250.1
1187.78	11421.4
1186.85	12253.5
1185.93	12560
1185.01	13047.7
1184.08	13686.8
1183.16	13909
1182.23	14112.2
1181.31	14066.4
1180.39	14293.8
1179.46	13945.1
1178.54	13588.5
1177.61	13164.4
1176.69	12816.1
1175.76	12351.8
1174.84	11906.5
1173.91	11561.4
1172.98	11335.1
1172.06	11184.6
1171.13	10742.6
1170.21	10376.3
1169.28	10369
1168.35	10604.6
1167.43	10395
1166.5	10377
1165.57	10426.4
1164.65	10384.1
1163.72	10411.9
1162.79	10353.5
1161.86	10327.4
1160.94	10414.5
1160.01	10202.5
1159.08	10453.9
1158.15	10519.4
1157.22	10487.9
1156.29	10472.6
1155.37	10481.5
1154.44	10676.1
1153.51	10356.7
1152.58	10505.5
1151.65	10691.9
1150.72	10526
1149.79	10586
1148.86	10527.6
1147.93	10687
1147	10892.1
1146.07	10758.5
1145.14	10721.6
1144.21	10719.7
1143.28	10846.8
1142.35	11003.2
1141.41	11014.7
1140.48	10913.4
1139.55	11088.6
1138.62	11357.7
1137.69	11326.1
1136.76	11324.1
1135.82	11509.8
1134.89	11371
1133.96	11473.6
1133.03	11538.6
1132.09	11654.4
1131.16	11507.7
1130.23	11626.2
1129.29	11849.1
1128.36	12069.2
1127.43	12115.3
1126.49	12166.7
1125.56	12293
1124.62	12403.2
1123.69	12591
1122.75	12428.2
1121.82	12605.2
1120.89	13033.5
1119.95	12849.4
1119.01	13373.7
1118.08	13317.9
1117.14	13523.9
1116.21	13406.6
1115.27	13623.3
1114.34	13583.5
1113.4	13741.3
1112.46	13760.2
1111.53	13974
1110.59	14107.6
1109.65	14246.5
1108.72	14505.4
1107.78	14697.6
1106.84	14956.3
1105.9	14876.4
1104.97	14975
1104.03	15513.5
1103.09	15785.2
1102.15	16019.5
1101.21	16456.3
1100.28	16743.7
1099.34	17015
1098.4	17217
1097.46	17730.4
1096.52	18049.3
1095.58	18192.5
1094.64	18386.1
1093.7	18369.6
1092.76	18387.6
1091.82	18498.7
1090.88	18918.1
1089.94	19558.1
1089	20160.6
1088.06	21483.1
1087.12	22985.8
1086.18	25797.7
1085.24	29030.8
1084.29	32610.7
1083.35	36303.5
1082.41	40671.9
1081.47	44208
1080.53	47790.5
1079.58	50122.2
1078.64	51320.2
1077.7	52075
1076.76	50872.4
1075.81	50205.8
1074.87	47980.7
1073.93	45698.1
1072.98	42329.8
1072.04	38737.6
1071.1	35427.4
1070.15	31636.4
1069.21	28254.5
1068.26	25159.8
1067.32	22757
1066.38	20445.1
1065.43	18919.9
1064.49	17720.7
1063.54	16432
1062.6	16037.6
1061.65	15064.3
1060.7	14715.3
1059.76	14215.7
1058.81	14036.1
1057.87	13713.9
1056.92	13296.7
1055.97	13104.1
1055.03	12705.6
1054.08	12848.6
1053.13	12701.1
1052.19	12337.2
1051.24	12379.9
1050.29	11979.2
1049.34	12058.9
1048.4	11922.2
1047.45	11743.4
1046.5	11794
1045.55	11744.4
1044.6	11584.2
1043.65	11600.6
1042.71	11640.7
1041.76	11422.6
1040.81	11597
1039.86	11468.5
1038.91	11516.5
1037.96	11419.7
1037.01	11336
1036.06	11305.1
1035.11	11268.8
1034.16	11253.7
1033.21	11385.8
1032.26	11336.4
1031.31	11097.8
1030.36	11093.1
1029.4	11201.6
1028.45	11312.5
1027.5	11173.9
1026.55	11169.3
1025.6	11172.5
1024.65	11110.1
1023.69	10992.6
1022.74	11019.5
1021.79	10978.2
1020.84	11133.7
1019.88	11302.2
1018.93	11507.4
1017.98	11358.5
1017.02	11424.6
1016.07	11409.5
1015.12	11661.7
1014.16	11871.9
1013.21	11922.1
1012.25	11967.2
1011.3	11569.5
1010.34	11787.4
1009.39	11588.9
1008.43	11183.7
1007.48	11268.1
1006.52	11237.3
1005.57	11078.3
1004.61	11073.7
1003.66	11144.9
1002.7	11119.4
1001.74	11193.2
1000.79	10940.2
999.832	11291.1
998.875	11043.5
997.919	11135.5
996.962	11136.2
996.004	11243.9
995.047	11032.9
994.089	11195.4
993.132	11026.4
992.174	11050.5
991.216	10907.6
990.258	11070
989.299	11068
988.341	11073.8
987.382	11087.5
986.423	10952.6
985.464	11133.1
984.505	10891.3
983.545	11116
982.586	11116.6
981.626	11057.3
980.666	11008.5
979.706	10878.9
978.746	10994.1
977.785	11195.2
976.824	11050
975.864	11277
974.903	11040.8
973.941	11200.1
972.98	11335.9
972.019	10993.3
971.057	11191.5
970.095	11124.5
969.133	11221.3
968.171	11299.8
967.209	11105.5
966.246	11285.3
965.283	11228.8
964.32	11315
963.357	11162.4
962.394	11417.4
961.431	11296
960.467	11312.1
959.503	11403.4
958.54	11152.4
957.575	11145.2
956.611	11340.2
955.647	11307.1
954.682	11468.3
953.717	11523.3
952.752	11249.2
951.787	11392.2
950.822	11543
949.857	11476.2
948.891	11463.7
947.925	11332.2
946.959	11563.1
945.993	11545.5
945.026	11639.2
944.06	11668.1
943.093	11337.6
942.126	11428.6
941.159	11354.2
940.192	11445.2
939.225	11270
938.257	11490.1
937.289	11480.3
936.322	11457.6
935.353	11445.2
934.385	11241.7
933.417	11337.8
932.448	11470
931.479	11504
930.51	11354.9
929.541	11476.7
928.572	11245.1
927.602	11330.7
926.633	11344.1
925.663	11398.8
924.693	11422.5
923.723	11533.8
922.752	11606.5
921.782	11354.5
920.811	11507
919.84	11195.9
918.869	11657.3
917.898	11472.5
916.926	11390.6
915.955	11293.4
914.983	11517.7
914.011	11466.8
913.039	11451.8
912.067	11316.1
911.094	11321.7
910.122	11371.1
909.149	11530.9
908.176	11492.9
907.203	11362.4
906.229	11509.3
905.256	11463.6
904.282	11417.8
903.308	11582.6
902.334	11377.8
901.36	11555.4
900.386	11648.2
899.411	11461.4
898.436	11567.1
897.461	11377.8
896.486	11439.8
895.511	11535.1
894.536	11453.6
893.56	11525.9
892.584	11408.5
891.608	11611.3
890.632	11609.2
889.656	11589.2
888.679	11466.8
887.702	11746.3
886.726	11716
885.748	11483.6
884.771	11583.9
883.794	11546
882.816	11820.1
881.839	11608.3
880.861	11506.5
879.882	11757.4
878.904	11740
877.926	11658.6
876.947	11508.4
875.968	11575.2
874.989	11772.3
874.01	11757.4
873.031	11928.9
872.051	11814.4
871.072	11768.9
870.092	11782.1
869.112	11780
868.131	11706.4
867.151	11887.9
866.17	11796.5
865.19	11796.9
864.209	11914.6
863.228	11649.9
862.246	11683.5
861.265	11676.3
860.283	11921.2
859.301	11743.4
858.319	11878.7
857.337	11863.8
856.355	11836.2
855.372	11948.6
854.389	11905.7
853.407	11913.7
852.424	12148.1
851.44	11876.4
850.457	11975.9
849.473	11877.1
848.489	11918.2
847.505	11875.4
846.521	12099.3
845.537	11987.9
844.552	11879.1
843.568	12092.7
842.583	11867.1
841.598	12230.5
840.613	12025.2
839.627	12155
838.642	12266.9
837.656	12353.5
836.67	12117.9
835.684	12143.6
834.698	12308.7
833.711	12331.8
832.724	12418.3
831.738	12456.5
830.751	12244.1
829.763	12393.8
828.776	12497.9
827.789	12189.3
826.801	12425
825.813	12329.1
824.825	12466
823.837	12314.5
822.848	12732.1
821.859	12696.9
820.871	12550.5
819.882	12636.7
818.892	12543.4
817.903	12275.8
816.914	12311.5
815.924	12251.1
814.934	12380.2
813.944	12287.1
812.954	12401
811.963	12295.2
810.973	12381.3
809.982	12227.7
808.991	12197.7
808	12288.8
807.008	12352.2
806.017	12284.4
805.025	12211.5
804.033	12506.7
803.041	12159.2
802.049	12255.3
801.057	12376.5
800.064	12351.6
799.071	12314
798.078	12369.7
797.085	12226.5
796.092	12272.1
795.099	12524
794.105	12199.7
793.111	12212.6
792.117	12270.7
791.123	12316.2
790.128	12391.9
789.134	12432.4
788.139	12246.7
787.144	12375.1
786.149	12232.2
785.154	12343
784.158	12544.1
783.162	12330.9
782.167	12506.9
781.171	12509.7
780.174	12680.6
779.178	12465
778.181	12422.6
777.185	12668.6
776.188	12586.1
775.191	12413.3
774.193	12759.4
773.196	12636.8
772.198	12524.3
771.2	12669.8
770.202	12577.3
769.204	12542.4
768.206	12717.9
767.207	12803.3
766.208	12555.6
765.209	12718.5
764.21	12656.1
763.211	12801.4
762.212	12709
761.212	12666.7
760.212	12806.9
759.212	12987.1
758.212	12889.7
757.211	12774.9
756.211	12852.5
755.21	13115
754.209	13624.6
753.208	13689.5
752.207	14248.8
751.205	14772.9
750.203	15553.9
749.202	16466.9
748.2	17451.8
747.197	18593.6
746.195	19652.6
745.192	20524.3
744.19	21617.5
743.187	22239.2
742.183	22120.5
741.18	21929.5
740.177	21245.4
739.173	20163
738.169	18782.2
737.165	17703.1
736.161	16412.8
735.156	15431.7
734.152	14590.2
733.147	14010.3
732.142	13863.5
731.137	13196.9
730.131	13241.7
729.126	13308.9
728.12	13040.5
727.114	13137.5
726.108	13023.3
725.102	12774.9
724.095	12983.7
723.089	12983.8
722.082	12936.8
721.075	13207.5
720.068	12745.9
719.06	13086
718.053	13165.5
717.045	13165.6
716.037	13170.6
715.029	13329.4
714.021	13388.9
713.012	13584.8
712.004	13450.9
710.995	13475.7
709.986	13735.9
708.977	13453.5
707.967	13577.3
706.958	13607
705.948	13394.1
704.938	13510.4
703.928	13547.6
702.917	13282.8
701.907	13315
700.896	13577.2
699.885	13169.1
698.874	13171.7
697.863	13171.7
696.851	13421.4
695.84	13206.4
694.828	13127.4
693.816	13041
692.804	13199.2
691.791	13085.6
690.779	13053.6
689.766	13058.6
688.753	12922.9
687.74	12937.8
686.727	13095.8
685.713	13007.1
684.7	13098.4
683.686	13002.3
682.672	13017.2
681.658	13059.2
680.643	12955.7
679.629	13150.5
678.614	13197.3
677.599	13258.9
676.584	13106.3
675.568	13276.2
674.553	13158.1
673.537	13000.6
672.521	12946.5
671.505	13232
670.489	13074.6
669.472	13069.8
668.456	13190.3
667.439	13271.5
666.422	13242
665.405	13020.8
664.387	13131.5
663.37	13163.5
662.352	13237.2
661.334	13291.2
660.316	13288.8
659.297	13288.8
658.279	13070.4
657.26	13163.7
656.241	13355.1
655.222	13095
654.203	13227.5
653.183	13146.6
652.164	13122.1
651.144	13168.8
650.124	13173.7
649.104	13080.6
648.083	13340.3
647.063	13281.5
646.042	13146.9
645.021	13435.8
644	13301.1
642.978	13563.1
641.957	13335.4
640.935	13306
639.913	13357.4
638.891	13501.7
637.869	13337.8
636.846	13719.2
635.824	14103
634.801	14818.9
633.778	15891.4
632.755	17156.6
631.731	18223.4
630.708	18645
629.684	18233.7
628.66	17317.3
627.636	16071.6
626.611	14960.6
625.587	14467.4
624.562	14174.4
623.537	13854.7
622.512	13905.8
621.487	13542.4
620.461	13413.1
619.436	13537.4
618.41	13305.8
617.384	13671.3
616.357	13503.1
615.331	13576.1
614.304	13797.6
613.277	13488.3
612.25	13551.6
611.223	13468.7
610.196	13622
609.168	13714.4
608.141	13587.8
607.113	13592.6
606.084	13614.4
605.056	13709.1
604.028	13869.4
602.999	13716.2
601.97	13669.9
600.941	13490
599.912	13766.9
598.882	13628.3
597.852	13871.1
596.823	13681.6
595.793	13766.4
594.762	13761.4
593.732	13741.9
592.701	13695.7
591.671	13477.3
590.64	13651.9
589.608	13693
588.577	13755.9
587.545	13591
586.514	13818.7
585.482	13632
584.45	13583.4
583.417	13706.9
582.385	13907.7
581.352	13653.4
580.319	13892.9
579.286	13592.7
578.253	13899.8
577.219	13723.1
576.186	13776.2
575.152	13684.2
574.118	13841.2
573.083	13860.4
572.049	13824
571.014	14096.9
569.98	14053.2
568.945	14118.3
567.909	14320.9
566.874	14190.3
565.838	14448.4
564.803	14520.5
563.767	14312.7
562.73	14483.8
561.694	14493.2
560.658	14408.5
559.621	14524
558.584	14441.7
557.547	14270.3
556.509	14487
555.472	14421.6
554.434	14657.5
553.396	14529.5
552.358	14656.9
551.32	14745.7
550.282	14384.2
549.243	14396
548.204	14720.6
547.165	14705.8
546.126	14794.5
545.086	14524.8
544.047	14548.6
543.007	14461.7
541.967	14511.9
540.927	14252.1
539.886	14309.5
538.846	14369.3
537.805	14104.8
536.764	14289.5
535.723	14382.9
534.681	14250.6
533.64	14039.2
532.598	14502.1
531.556	14386.7
530.514	14340.8
529.472	14436.5
528.429	14527.3
527.387	14438.3
526.344	14462
525.301	14485.7
524.257	14509.3
523.214	14722.3
522.17	14535.1
521.126	14635.4
520.082	14687.7
519.038	14395.3
517.993	14380.7
516.949	14445
515.904	14365.8
514.859	14422.9
513.814	14535
512.768	14317.1
511.723	14505.7
510.677	14362
509.631	14419.1
508.585	14268.2
507.538	14349.2
506.492	14341.8
505.445	14234
504.398	14188.4
503.351	14393.4
502.303	14448
501.256	14309.3
500.208	14239.9
499.16	14504.4
498.112	14194
497.063	14186.6
496.015	14272.2
494.966	14176.6
493.917	14162
492.868	14123.6
491.819	14233
490.769	14382.8
489.72	14244.3
488.67	14396.5
487.62	14379.5
486.569	14243.5
485.519	14293.2
484.468	14369.1
483.417	14166.6
482.366	14416.1
481.315	14406.2
480.263	14065.9
479.212	14213.1
478.16	14077.3
477.108	14283.8
476.055	14238.4
475.003	14079
473.95	14074
472.897	14258.9
471.844	14211.2
470.791	14263.1
469.738	14381.5
468.684	14291
467.63	14428.3
466.576	14416.1
465.522	14565.2
464.468	14280.3
463.413	14448.4
462.358	14443.3
461.303	14367.1
460.248	14485.3
459.193	14634.2
458.137	14330.7
457.081	14517.4
456.025	14637.8
454.969	14897.8
453.913	14634.7
452.856	14776.3
451.799	14846.9
450.742	15016.8
449.685	14976.2
448.628	15155.4
447.57	14975.3
446.512	15128.5
445.454	15080.8
444.396	15276.4
443.338	15235.8
442.279	15211.7
441.221	15336.3
440.162	15359.4
439.102	15528.9
438.043	15370.2
436.983	15315.4
435.924	15185.2
434.864	15118.7
433.804	15229
432.743	15108.3
431.683	15265.8
430.622	15175.7
429.561	15248.3
428.5	15330.2
427.439	15247.3
426.377	15218.5
425.315	15394.6
424.253	15271.7
423.191	15120.5
422.129	15237.7
421.066	15369
420.004	15563.7
418.941	15520.8
417.878	15376.8
416.814	15486.8
415.751	15389.9
414.687	15455.1
413.623	15553.3
412.559	15714.8
411.495	15657.9
410.43	15835.8
409.365	15915
408.301	15576.3
407.235	15960.7
406.17	15697.2
405.105	16123.6
404.039	15970.5
402.973	16016.7
401.907	15875.4
400.84	15902.9
399.774	15597.5
398.707	15604
397.64	15533.1
396.573	15406
395.506	15599.9
394.438	15285.5
393.371	15404.4
392.303	15254
391.235	15251.1
390.166	15175.7
389.098	15198.6
388.029	15336.1
386.96	15150.8
385.891	15052.1
384.822	15082
383.752	15156.3
382.682	15508.7
381.613	15120.3
380.542	15110.4
379.472	15268.7
378.402	15013.7
377.331	14810
376.26	15001
375.189	15044.9
374.117	15266.1
373.046	15134.9
371.974	15064.4
370.902	15115.2
369.83	15333.9
368.758	15062.9
367.685	14983.2
366.613	15234.4
365.54	15231.5
364.466	15095.9
363.393	14988.2
362.32	15274.2
361.246	14775.4
360.172	15100.8
359.098	14795.4
358.023	15202.2
356.949	15176.1
355.874	15122
354.799	15209.9
353.724	15146.6
352.649	15094.9
351.573	15350.1
350.497	15226.3
349.421	15297.8
348.345	15160.2
347.269	14980.8
346.192	15507.5
345.115	15367.6
344.038	15299.7
342.961	15515
341.884	15370.5
340.806	15386.2
339.728	15626.8
338.65	15484.7
337.572	15644.1
336.494	15740.9
335.415	15735.6
334.336	15658.5
333.257	15618.5
332.178	16007
331.099	15765.4
330.019	16068.1
328.939	15993.3
327.859	16323.6
326.779	16103
325.699	16037.5
324.618	16127
323.537	16341.4
322.456	16370.7
321.375	16363
320.293	16586.5
319.212	16571.8
318.13	16425.4
317.048	16621
315.966	16511.6
314.883	16603.2
313.8	16794
312.718	16620
311.634	16875.4
310.551	16809.9
309.468	16384.5
308.384	16625.9
307.3	16786.5
306.216	16382.1
305.132	16577.3
304.047	16525.8
302.962	16497.3
301.877	16339.8
300.792	16606.3
299.707	16681.4
298.621	16443.4
297.536	16490.9
296.45	16568.4
295.364	16459.4
294.277	16325.1
293.191	16333.5
292.104	16512.2
291.017	16341.2
289.93	16294.4
288.842	16369.5
287.755	16456
286.667	16680.5
285.579	16332.6
284.491	16437.5
283.402	16480.4
282.314	16789.6
281.225	16306.5
280.136	16881.9
279.047	16681.3
277.957	16487.7
276.867	16723.2
275.778	16793.5
274.688	16645.8
273.597	16635.8
272.507	16538.6
271.416	16964.1
270.325	16935.7
269.234	17026.5
268.143	16966
267.051	16910.1
265.96	17135.9
264.868	17038.8
263.776	16831.8
262.683	17389.3
261.591	17196.1
260.498	17064.8
259.405	16965.5
258.312	16795.3
257.218	17119.1
256.125	16903.2
255.031	17060
253.937	16988.2
252.843	16845.7
251.748	16927
250.654	16976.3
249.559	16904.6
248.464	16734.7
247.369	16576.3
246.273	16356.4
245.178	16408.1
244.082	16311.4
242.986	16214.8
241.889	16134.2
240.793	15898.6
239.696	16080.2
238.599	15737.6
237.502	15780.2
236.405	15868.3
235.307	15965.5
234.21	15869.1
233.112	15715.8
232.014	15726.5
230.915	15728.1
229.817	15768.3
228.718	15758.5
227.619	15964.8
226.52	16114.1
225.42	15986
224.321	15905.7
223.221	15991.3
222.121	15981.5
221.021	16337.4
219.92	16059.5
218.82	16222.2
217.719	15860.3
216.618	16166.1
215.516	16351.5
214.415	16287.1
213.313	16163.7
212.211	16618.9
211.109	16320.9
210.007	16186.2
208.904	16319.2
207.802	16440.8
206.699	16569.2
205.595	16575.1
204.492	16395.2
203.389	16586.9
202.285	16391.2
201.181	16745.9
200.077	16668
198.972	16891.2
197.867	16636.8
196.763	16948.1
195.658	16777.5
194.552	16824.1
193.447	16875.1
192.341	17037
191.235	17002.1
190.129	17062.1
189.023	17034
187.916	16954
186.81	17181.2
185.703	17193.7
184.595	17312.4
183.488	17340.7
182.381	17398.3
181.273	17367.9
180.165	17529.3
179.057	17668.1
177.948	18000.8
176.839	18015.4
175.731	18068.4
174.622	18283.6
173.512	18435.6
172.403	18459.1
171.293	18545.7
170.183	18731.4
169.073	18574.7
167.963	18706.2
166.852	18689.2
165.742	18588.8
164.631	18598.8
163.519	18532.2
162.408	18654.7
161.296	18253
160.185	18204.6
159.073	18246.1
157.96	18253.8
156.848	18277.3
155.735	18168.2
154.622	18607.3
153.509	18480.2
152.396	18694.5
151.282	18792
150.169	18831.1
149.055	18823
147.941	18931.6
146.826	19401.3
145.712	19218.2
144.597	19530.7
143.482	19733.3
142.367	19864
141.251	20263.7
140.136	20396.5
139.02	20370.2
137.904	20686.6
136.788	20899.9
135.671	21140
134.554	20983.7
133.437	21465.4
132.32	21483.7
131.203	22162
130.085	22101.9
128.968	22254.2
127.85	22200.8
126.732	22619.1
125.613	22784.6
124.494	23234
123.376	23464.1
122.257	23917.6
121.137	24163.2
120.018	24328.3
118.898	24765.8
117.778	25303.5
116.658	25461.6
115.538	25780.3
114.417	26089.9
113.296	26490.9
112.176	26871.6
111.054	26743.9
109.933	27342.9
108.811	27016.7
107.689	26973.7
106.567	26739
105.445	26564.6
104.323	26290
103.2	25714.9
102.077	25496.3
100.954	25306.6
