4001.37	15.7429
4000.9	15.7429
4000.42	20.9876
3999.94	26.2307
3999.47	-15.7362
3998.99	20.9786
3998.51	26.2195
3998.04	31.4589
3997.56	20.9696
3997.08	15.725
3996.6	0
3996.13	26.2009
3995.65	15.7183
3995.17	0
3994.7	36.6656
3994.22	0
3993.74	26.1822
3993.26	31.4142
3992.79	26.1748
3992.31	26.1711
3991.83	-15.7004
3991.35	26.1636
3990.88	20.9279
3990.4	-10.4625
3989.92	5.23049
3989.44	15.6892
3988.96	15.687
3988.49	5.22825
3988.01	15.6825
3987.53	-5.22677
3987.05	10.452
3986.57	20.9011
3986.09	-10.4491
3985.61	15.6714
3985.14	31.3383
3984.66	10.4446
3984.18	-5.22156
3983.7	20.8833
3983.22	0
3982.74	36.5353
3982.26	26.0929
3981.78	20.8714
3981.3	0
3980.83	41.7308
3980.35	-5.21561
3979.87	-5.21487
3979.39	-15.6424
3978.91	20.8535
3978.43	26.0632
3977.95	5.2119
3977.47	5.21116
3976.99	15.6312
3976.51	52.0967
3976.03	20.8357
3975.55	10.4164
3975.07	-10.4149
3974.59	15.6201
3974.11	26.0298
3973.63	10.4104
3973.15	10.409
3972.67	5.20373
3972.19	20.812
3971.71	0
3971.23	0
3970.74	5.20077
3970.26	10.4001
3969.78	0
3969.3	5.19854
3968.82	31.1868
3968.34	5.19706
3967.86	-10.3926
3967.38	5.19558
3966.9	10.3897
3966.42	15.5823
3965.93	15.5801
3965.45	20.7705
3964.97	15.5756
3964.49	41.5291
3964.01	0
3963.53	36.3276
3963.04	41.5113
3962.56	-5.18818
3962.08	20.7497
3961.6	15.5601
3961.12	15.5579
3960.63	15.5557
3960.15	-31.1069
3959.67	15.5512
3959.19	20.732
3958.71	46.6403
3958.22	25.9076
3957.74	5.18078
3957.26	15.5401
3956.77	-15.5379
3956.29	10.3571
3955.81	36.2448
3955.33	10.3542
3954.84	20.7054
3954.36	25.878
3953.88	10.3497
3953.39	10.3483
3952.91	-5.17339
3952.43	41.3812
3951.94	0
3951.46	10.3424
3950.98	5.17044
3950.49	25.8485
3950.01	-20.6759
3949.53	10.3365
3949.04	0
3948.56	20.667
3948.07	10.332
3947.59	15.4958
3947.11	25.8227
3946.62	20.6552
3946.14	25.8153
3945.65	5.16233
3945.17	36.1311
3944.69	5.16085
3944.2	15.4803
3943.72	0
3943.23	10.3173
3942.75	5.15791
3942.26	-30.943
3941.78	15.4693
3941.29	-25.7785
3940.81	25.7748
3940.32	20.6169
3939.84	41.2279
3939.35	10.3055
3938.87	20.6081
3938.38	20.6051
3937.9	10.3011
3937.41	10.2996
3936.93	15.4472
3936.44	25.7417
3935.95	30.8856
3935.47	-5.14686
3934.98	-36.0229
3934.5	0
3934.01	25.7233
3933.52	5.14392
3933.04	-5.14319
3932.55	0
3932.07	25.7086
3931.58	15.4229
3931.09	30.8415
3930.61	35.9766
3930.12	25.6939
3929.63	20.5522
3929.15	20.5492
3928.66	0
3928.17	15.4075
3927.69	35.9457
3927.2	15.4031
3926.71	30.8018
3926.23	5.1329
3925.74	-5.13217
3925.25	25.6572
3924.76	5.1307
3924.28	5.12997
3923.79	10.2585
3923.3	-5.1285
3922.81	0
3922.33	-5.12704
3921.84	15.3789
3921.35	-5.12557
3920.86	10.2497
3920.38	15.3723
3919.89	5.12337
3919.4	25.6132
3918.91	5.1219
3918.42	10.2423
3917.94	-10.2409
3917.45	-5.11971
3916.96	15.3569
3916.47	20.473
3915.98	25.5875
3915.49	35.8174
3915	15.3481
3914.52	35.8072
3914.03	15.3437
3913.54	5.11385
3913.05	15.3393
3912.56	5.11238
3912.07	5.11165
3911.58	15.3328
3911.09	15.3306
3910.6	-5.10946
3910.11	40.8698
3909.62	-15.324
3909.14	20.4291
3908.65	5.10653
3908.16	10.2116
3907.67	-5.10507
3907.18	0
3906.69	0
3906.2	15.3086
3905.71	10.2043
3905.22	5.10142
3904.73	25.5034
3904.24	5.09996
3903.75	15.2977
3903.26	-5.0985
3902.77	25.4888
3902.27	25.4852
3901.78	5.0963
3901.29	30.5734
3900.8	20.3794
3900.31	25.4706
3899.82	20.3735
3899.33	15.278
3898.84	5.09193
3898.35	5.0912
3897.86	-20.3619
3897.37	-10.1795
3896.87	15.267
3896.38	25.4414
3895.89	15.2627
3895.4	25.4341
3894.91	10.1722
3894.42	35.5975
3893.93	15.2539
3893.43	15.2517
3892.94	40.6654
3892.45	10.1649
3891.96	-10.1634
3891.47	5.08099
3890.97	25.4013
3890.48	15.2386
3889.99	5.07881
3889.5	0
3889.01	15.2321
3888.51	15.2299
3888.02	20.3036
3887.53	10.1503
3887.03	-20.2978
3886.54	0
3886.05	40.5839
3885.56	45.6503
3885.06	-10.1431
3884.57	25.354
3884.08	-10.1402
3883.58	10.1387
3883.09	5.06862
3882.6	-15.2037
3882.1	15.2015
3881.61	-10.1329
3881.12	45.5914
3880.62	0
3880.13	5.06426
3879.64	15.1906
3879.14	5.06281
3878.65	-10.1242
3878.15	35.4295
3877.66	15.1819
3877.17	-10.1198
3876.67	0
3876.18	20.2338
3875.68	-5.05772
3875.19	0
3874.7	20.2251
3874.2	5.05555
3873.71	20.2193
3873.21	15.1623
3872.72	-5.05337
3872.22	25.2632
3871.73	30.3115
3871.23	15.1536
3870.74	10.1009
3870.24	25.2487
3869.75	0
3869.25	25.2415
3868.76	-15.1427
3868.26	10.0937
3867.77	50.4612
3867.27	-25.227
3866.77	5.04467
3866.28	10.0879
3865.78	-5.04322
3865.29	10.085
3864.79	25.2089
3864.3	30.2463
3863.8	-5.04033
3863.3	5.0396
3862.81	5.03888
3862.31	-10.0763
3861.81	20.1497
3861.32	5.03671
3860.82	10.072
3860.33	10.0705
3859.83	-10.0691
3859.33	5.03381
3858.84	-5.03309
3858.34	50.3237
3857.84	15.0949
3857.35	15.0928
3856.85	25.151
3856.35	15.0884
3855.85	5.02875
3855.36	-5.02803
3854.86	25.1365
3854.36	20.1063
3853.86	10.0517
3853.37	25.1257
3852.87	-5.02442
3852.37	15.0711
3851.87	10.0459
3851.38	5.02225
3850.88	15.0646
3850.38	15.0624
3849.88	0
3849.38	0
3848.89	-5.01864
3848.39	20.0717
3847.89	0
3847.39	-20.0659
3846.89	0
3846.39	20.0601
3845.9	35.1002
3845.4	10.0272
3844.9	5.01287
3844.4	35.0851
3843.9	-5.01143
3843.4	5.01071
3842.9	25.0499
3842.4	25.0463
3841.91	20.0342
3841.41	30.047
3840.91	40.0569
3840.41	10.0128
3839.91	5.00567
3839.41	40.0396
3838.91	-5.00423
3838.41	10.007
3837.91	0
3837.41	25.0103
3836.91	0
3836.41	25.0031
3835.91	9.99981
3835.41	14.9976
3834.91	29.9908
3834.41	19.991
3833.91	0
3833.41	-4.99631
3832.91	14.9868
3832.41	29.9692
3831.91	34.9591
3831.41	14.9803
3830.91	0
3830.4	24.96
3829.9	-9.98255
3829.4	0
3828.9	14.9695
3828.4	14.9674
3827.9	-9.97681
3827.4	19.9507
3826.9	-9.97393
3826.4	9.9725
3825.89	39.8842
3825.39	39.8785
3824.89	14.9523
3824.39	4.98338
3823.89	0
3823.39	29.8916
3822.88	9.96245
3822.38	34.8635
3821.88	24.8989
3821.38	24.8954
3820.88	24.8918
3820.37	-4.97764
3819.87	-14.9308
3819.37	4.9762
3818.87	29.8529
3818.36	29.8486
3817.86	24.8703
3817.36	14.92
3816.86	14.9179
3816.35	29.8314
3815.85	-4.97118
3815.35	9.94094
3814.84	19.879
3814.34	39.7523
3813.84	-9.93664
3813.33	4.9676
3812.83	29.8013
3812.33	9.93234
3811.82	14.8964
3811.32	9.92948
3810.82	14.8921
3810.31	29.7798
3809.81	-4.96259
3809.31	34.7331
3808.8	29.767
3808.3	-14.8813
3807.79	-4.95973
3807.29	34.7131
3806.79	0
3806.28	14.8728
3805.78	39.655
3805.27	44.6054
3804.77	14.8663
3804.26	14.8642
3803.76	14.862
3803.25	9.90659
3802.75	19.8103
3802.24	29.7112
3801.74	14.8535
3801.23	14.8513
3800.73	-4.94972
3800.22	-24.745
3799.72	4.94829
3799.21	-19.7903
3798.71	14.8406
3798.2	0
3797.7	29.6726
3797.19	-4.94473
3796.69	24.7201
3796.18	14.8299
3795.67	-4.94258
3795.17	9.88374
3794.66	14.8235
3794.16	24.7022
3793.65	24.6987
3793.14	-4.93902
3792.64	19.7532
3792.13	24.688
3791.63	44.4319
3791.12	4.93617
3790.61	14.8064
3790.11	9.86948
3789.6	24.6701
3789.09	14.7999
3788.59	14.7978
3788.08	39.4551
3787.57	9.86236
3787.06	24.6523
3786.56	4.92975
3786.05	24.6452
3785.54	4.92833
3785.04	0
3784.53	0
3784.02	19.7048
3783.51	0
3783.01	19.6991
3782.5	-4.92406
3781.99	14.77
3781.48	4.92264
3780.97	34.4535
3780.47	-4.92122
3779.96	24.6025
3779.45	4.91979
3778.94	34.4336
3778.43	14.7551
3777.93	24.5883
3777.42	24.5848
3776.91	9.83248
3776.4	24.5776
3775.89	14.7445
3775.38	0
3774.87	14.7402
3774.36	9.82537
3773.86	-9.82395
3773.35	0
3772.84	19.6422
3772.33	29.4591
3771.82	29.4548
3771.31	29.4506
3770.8	-4.90772
3770.29	0
3769.78	4.9063
3769.27	14.7168
3768.76	29.4293
3768.25	29.425
3767.74	-4.90346
3767.23	34.3193
3766.72	24.5102
3766.21	0
3765.7	19.6025
3765.19	44.0992
3764.68	29.3952
3764.17	24.4925
3763.66	0
3763.15	0
3762.64	19.5855
3762.13	14.687
3761.62	29.3697
3761.11	39.154
3760.6	4.89354
3760.09	14.6785
3759.57	9.78424
3759.06	9.78283
3758.55	9.78141
3758.04	14.67
3757.53	24.4465
3757.02	34.2201
3756.51	9.77575
3756	4.88717
3755.48	0
3754.97	-4.88575
3754.46	53.7355
3753.95	9.76868
3753.44	58.6036
3752.92	0
3752.41	9.76443
3751.9	4.88151
3751.39	4.8808
3750.88	24.4005
3750.36	24.3969
3749.85	29.2721
3749.34	19.5119
3748.83	0
3748.31	-4.87656
3747.8	29.2551
3747.29	4.87515
3746.78	4.87444
3746.26	-4.87374
3745.75	9.74607
3745.24	-4.87233
3744.72	-4.87162
3744.21	9.74183
3743.7	38.9617
3743.18	9.73901
3742.67	24.344
3742.16	0
3741.64	24.3369
3741.13	0
3740.61	-43.7938
3740.1	4.86527
3739.59	4.86457
3739.07	38.9109
3738.56	38.9052
3738.04	14.5874
3737.53	14.5852
3737.02	14.5831
3736.5	9.72067
3735.99	-14.5789
3735.47	14.5768
3734.96	29.1493
3734.44	34.0026
3733.93	9.71363
3733.41	4.85611
3732.9	4.85541
3732.38	19.4188
3731.87	-4.854
3731.35	38.8264
3730.84	14.5578
3730.32	14.5557
3729.81	14.5535
3729.29	4.85048
3728.78	19.3991
3728.26	9.69815
3727.75	-9.69674
3727.23	14.543
3726.71	38.7757
3726.2	19.385
3725.68	24.2278
3725.17	14.5346
3724.65	-14.5325
3724.13	24.2172
3723.62	38.742
3723.1	43.5784
3722.59	14.524
3722.07	9.68127
3721.55	29.0396
3721.04	0
3720.52	19.3541
3720	4.83783
3719.49	19.3485
3718.97	19.3457
3718.45	0
3717.93	14.5051
3717.42	19.3373
3716.9	19.3345
3716.38	4.83291
3715.87	19.3288
3715.35	9.66302
3714.83	14.4924
3714.31	24.1505
3713.8	14.4882
3713.28	-4.8287
3712.76	38.624
3712.24	24.1365
3711.72	-4.8266
3711.21	28.9554
3710.69	9.6504
3710.17	38.596
3709.65	24.119
3709.13	9.64619
3708.61	28.9344
3708.1	14.4651
3707.58	14.463
3707.06	-9.64059
3706.54	14.4588
3706.02	-9.63779
3705.5	24.091
3704.98	4.81749
3704.46	9.63359
3703.95	0
3703.43	4.81539
3702.91	4.81469
3702.39	-4.81399
3701.87	9.62659
3701.35	24.063
3700.83	19.2476
3700.31	9.62239
3699.79	28.863
3699.27	4.8098
3698.75	19.2364
3698.23	0
3697.71	19.2308
3697.19	0
3696.67	19.2252
3696.15	19.2224
3695.63	24.0245
3695.11	28.8252
3694.59	0
3694.07	28.8169
3693.55	14.4063
3693.03	28.8085
3692.51	24.0036
3691.99	28.8001
3691.46	9.59864
3690.94	-4.79862
3690.42	4.79792
3689.9	-9.59445
3689.38	4.79653
3688.86	4.79583
3688.34	-9.59026
3687.82	-14.3833
3687.29	43.1436
3686.77	14.3791
3686.25	19.1694
3685.73	9.58329
3685.21	4.79095
3684.69	23.9512
3684.16	23.9478
3683.64	23.9443
3683.12	4.78816
3682.6	19.1498
3682.08	-9.57353
3681.55	19.1443
3681.03	14.3561
3680.51	19.1387
3679.99	9.56795
3679.46	4.78328
3678.94	4.78258
3678.42	43.037
3677.89	4.78119
3677.37	52.5855
3676.85	-14.3394
3676.33	19.1164
3675.8	4.77841
3675.28	-4.77771
3674.76	33.4391
3674.23	4.77632
3673.71	42.9806
3673.19	-4.77493
3672.66	0
3672.14	47.7354
3671.61	23.8642
3671.09	33.405
3670.57	14.3144
3670.04	23.8538
3669.52	38.1605
3668.99	14.3081
3668.47	23.8434
3667.95	-4.76798
3667.42	0
3666.9	28.5995
3666.37	14.2977
3665.85	4.7652
3665.32	4.7645
3664.8	23.8191
3664.27	14.2893
3663.75	33.337
3663.22	19.0469
3662.7	28.5662
3662.17	33.3224
3661.65	14.2789
3661.12	14.2769
3660.6	33.3078
3660.07	23.7878
3659.55	0
3659.02	38.0494
3658.49	23.7774
3657.97	42.7931
3657.44	23.7705
3656.92	14.2602
3656.39	23.7636
3655.86	28.5121
3655.34	9.50265
3654.81	23.7532
3654.29	14.2498
3653.76	18.997
3653.23	28.4913
3652.71	23.7393
3652.18	33.2302
3651.65	23.7324
3651.13	-14.2373
3650.6	18.9804
3650.07	23.722
3649.55	23.7185
3649.02	28.4581
3648.49	28.4539
3647.96	14.2249
3647.44	9.48188
3646.91	4.74025
3646.38	18.9582
3645.85	42.6498
3645.33	18.9527
3644.8	-18.9499
3644.27	9.47357
3643.74	4.7361
3643.22	23.677
3642.69	33.143
3642.16	37.8722
3641.63	18.9333
3641.1	28.3958
3640.57	28.3917
3640.05	37.8501
3639.52	42.5751
3638.99	9.45975
3638.46	18.9167
3637.93	42.5565
3637.4	0
3636.87	14.1813
3636.35	9.45285
3635.82	28.3544
3635.29	9.45009
3634.76	14.1731
3634.23	9.44733
3633.7	4.72297
3633.17	4.72228
3632.64	0
3632.11	4.7209
3631.58	23.6011
3631.05	14.1586
3630.52	4.71883
3629.99	4.71814
3629.46	23.5873
3628.93	18.8671
3628.4	4.71608
3627.87	0
3627.34	4.7147
3626.81	9.42802
3626.28	9.42664
3625.75	32.9884
3625.22	-4.71194
3624.69	18.845
3624.16	18.8423
3623.63	4.70988
3623.1	14.1276
3622.57	32.9595
3622.03	4.70781
3621.5	9.41425
3620.97	-4.70643
3620.44	14.1172
3619.91	28.2303
3619.38	42.3393
3618.85	37.6295
3618.32	9.40599
3617.78	32.9161
3617.25	9.40324
3616.72	23.5047
3616.19	14.1007
3615.66	37.5964
3615.12	14.0966
3614.59	18.7927
3614.06	9.39499
3613.53	18.7872
3613	14.0884
3612.46	42.2589
3611.93	4.69475
3611.4	4.69406
3610.86	42.2403
3610.33	28.1561
3609.8	14.076
3609.27	18.7652
3608.73	18.7625
3608.2	32.8296
3607.67	4.68925
3607.13	4.68857
3606.6	32.8152
3606.07	23.436
3605.53	32.8055
3605	4.68582
3604.47	32.7959
3603.93	4.68445
3603.4	14.0513
3602.87	32.7815
3602.33	18.7296
3601.8	32.7719
3601.26	9.36204
3600.73	4.68033
3600.2	46.7965
3599.66	14.0369
3599.13	42.1045
3598.59	14.0328
3598.06	28.0614
3597.52	14.0287
3596.99	37.4043
3596.45	23.3743
3595.92	9.34834
3595.38	4.67348
3594.85	28.0368
3594.31	-14.0163
3593.78	32.7
3593.24	9.34149
3592.71	23.3503
3592.17	0
3591.64	28.0122
3591.1	46.6801
3590.57	23.3366
3590.03	13.9999
3589.49	23.3298
3588.96	18.6611
3588.42	-4.66459
3587.89	9.32781
3587.35	27.9793
3586.81	37.3003
3586.28	13.9856
3585.74	-18.6447
3585.2	4.66049
3584.67	18.6392
3584.13	4.65912
3583.6	32.6091
3583.06	4.65775
3582.52	-4.65707
3581.98	27.9383
3581.45	32.5899
3580.91	27.9301
3580.37	41.8891
3579.84	41.8829
3579.3	32.5708
3578.76	23.2615
3578.22	13.9548
3577.69	13.9528
3577.15	37.202
3576.61	-4.64956
3576.07	23.2444
3575.54	23.241
3575	27.8851
3574.46	37.1747
3573.92	23.2308
3573.38	27.8728
3572.85	37.1583
3572.31	41.797
3571.77	23.2171
3571.23	9.28549
3570.69	27.8524
3570.15	23.2069
3569.61	27.8442
3569.08	23.2001
3568.54	32.4754
3568	46.3866
3567.46	46.3798
3566.92	13.9119
3566.38	4.63661
3565.84	13.9078
3565.3	18.541
3564.76	32.442
3564.22	50.9728
3563.68	37.0657
3563.14	37.0602
3562.6	13.8955
3562.06	4.63117
3561.52	41.6744
3560.98	32.4087
3560.44	50.9204
3559.9	32.3991
3559.36	64.7888
3558.82	27.7625
3558.28	23.132
3557.74	41.6316
3557.2	37.0004
3556.66	32.3706
3556.12	41.6132
3555.58	13.869
3555.04	27.734
3554.5	13.865
3553.96	9.24195
3553.42	36.9624
3552.87	27.7177
3552.33	18.4757
3551.79	-13.8548
3551.25	32.3231
3550.71	23.0845
3550.17	36.9298
3549.63	13.8466
3549.08	41.5338
3548.54	27.6851
3548	18.454
3547.46	27.677
3546.92	9.2243
3546.37	46.1147
3545.83	36.8864
3545.29	41.491
3544.75	9.21888
3544.21	27.6526
3543.66	0
3543.12	27.6444
3542.58	18.4269
3542.03	36.8484
3541.49	36.843
3540.95	36.8376
3540.41	32.2281
3539.86	32.2234
3539.32	23.0133
3538.78	9.20397
3538.23	13.8039
3537.69	36.805
3537.15	32.1997
3536.6	59.7906
3536.06	22.993
3535.52	36.7834
3534.97	27.5835
3534.43	4.59657
3533.88	59.7466
3533.34	45.9522
3532.8	50.5399
3532.25	18.3755
3531.71	18.3728
3531.16	36.7401
3530.62	9.18367
3530.07	45.9116
3529.53	50.4953
3528.98	4.58981
3528.44	22.9457
3527.89	13.7654
3527.35	45.8778
3526.8	27.5226
3526.26	41.2779
3525.71	4.58575
3525.17	36.6806
3524.62	13.7532
3524.08	13.7512
3523.53	13.7492
3522.99	36.659
3522.44	32.0719
3521.9	32.0672
3521.35	32.0625
3520.8	32.0577
3520.26	41.211
3519.71	9.15666
3519.17	32.0436
3518.62	22.8849
3518.07	32.0341
3517.53	4.57563
3516.98	0
3516.43	18.2971
3515.89	50.3097
3515.34	18.2917
3514.79	59.4394
3514.25	68.5738
3513.7	22.8546
3513.15	31.9917
3512.61	41.1261
3512.06	36.5511
3511.51	-4.56822
3510.96	22.8377
3510.42	13.7006
3509.87	50.2282
3509.32	27.3931
3508.77	41.0836
3508.23	9.12835
3507.68	54.762
3507.13	27.377
3506.58	-9.12431
3506.04	31.9304
3505.49	13.6824
3504.94	22.8007
3504.39	54.7136
3503.84	59.2643
3503.29	22.7906
3502.75	41.017
3502.2	22.7839
3501.65	27.3366
3501.1	13.6663
3500.55	22.7738
3500	36.4327
3499.45	9.10683
3498.9	27.3165
3498.35	-4.55207
3497.8	36.4112
3497.26	27.3044
3496.71	9.10011
3496.16	22.7469
3495.61	31.841
3495.06	27.2882
3494.51	68.2105
3493.96	40.9203
3493.41	27.2762
3492.86	4.54536
3492.31	31.8128
3491.76	63.6162
3491.21	4.54334
3490.66	13.628
3490.11	18.168
3489.56	63.5786
3489	31.7846
3488.45	13.62
3487.9	22.6966
3487.35	45.3865
3486.8	63.5317
3486.25	9.07461
3485.7	31.7565
3485.15	27.2158
3484.6	31.7471
3484.05	22.6731
3483.49	0
3482.94	13.5999
3482.39	36.2609
3481.84	22.6597
3481.29	36.2502
3480.74	18.1224
3480.18	58.8892
3479.63	40.7634
3479.08	36.2288
3478.53	4.52793
3477.98	31.6908
3477.42	22.633
3476.87	22.6296
3476.32	36.202
3475.77	13.5738
3475.21	45.2391
3474.66	27.1395
3474.11	13.5677
3473.56	72.3505
3473	-4.52124
3472.45	36.1646
3471.9	18.0796
3471.34	40.6731
3470.79	22.5928
3470.24	13.5537
3469.68	58.724
3469.13	45.1656
3468.58	18.0636
3468.02	27.0913
3467.47	63.2038
3466.91	27.0833
3466.36	45.1322
3465.81	27.0753
3465.25	58.6545
3464.7	40.601
3464.14	18.0422
3463.59	36.0791
3463.04	27.0553
3462.48	67.6282
3461.93	45.0788
3461.37	22.5361
3460.82	31.5458
3460.26	31.5412
3459.71	4.50521
3459.15	36.0364
3458.6	63.0543
3458.04	27.0193
3457.49	22.5127
3456.93	22.5094
3456.38	31.5085
3455.82	45.0055
3455.27	31.4992
3454.71	0
3454.15	31.4898
3453.6	40.4809
3453.04	35.9777
3452.49	31.4758
3451.93	8.99177
3451.37	17.9809
3450.82	17.9782
3450.26	40.445
3449.7	8.98644
3449.15	31.4479
3448.59	35.9351
3448.04	53.8947
3447.48	26.9433
3446.92	40.409
3446.36	17.9569
3445.81	49.3742
3445.25	40.3911
3444.69	35.8979
3444.14	40.3791
3443.58	62.8026
3443.02	26.9114
3442.46	26.9074
3441.91	53.8069
3441.35	44.8324
3440.79	53.7909
3440.23	44.8191
3439.68	44.8125
3439.12	40.3253
3438.56	8.95984
3438	35.834
3437.44	26.8716
3436.88	17.9117
3436.33	40.2954
3435.77	22.383
3435.21	40.2834
3434.65	17.9011
3434.09	35.7969
3433.53	31.3176
3432.97	13.4198
3432.42	26.8357
3431.86	49.1915
3431.3	40.2416
3430.74	49.1769
3430.18	35.7597
3429.62	44.693
3429.06	44.6864
3428.5	13.4039
3427.94	31.2712
3427.38	35.7332
3426.82	31.2619
3426.26	22.3266
3425.7	35.7173
3425.14	44.64
3424.58	26.78
3424.02	31.2387
3423.46	26.7721
3422.9	4.46135
3422.34	71.371
3421.78	-17.8401
3421.22	22.2968
3420.66	62.4218
3420.1	62.4125
3419.54	17.8295
3418.98	31.197
3418.41	8.9121
3417.85	31.1877
3417.29	31.1831
3416.73	62.3569
3416.17	17.8136
3415.61	35.622
3415.05	22.2604
3414.49	31.16
3413.92	53.4091
3413.36	31.1507
3412.8	31.1461
3412.24	62.2829
3411.68	57.8255
3411.11	44.4746
3410.55	17.7872
3409.99	62.2459
3409.43	17.7819
3408.86	31.1137
3408.3	48.8857
3407.74	44.4349
3407.18	13.3285
3406.61	26.653
3406.05	22.2076
3405.49	26.6451
3404.92	35.5215
3404.36	26.6372
3403.8	35.511
3403.24	39.9439
3402.67	17.7502
3402.11	53.2427
3401.54	31.0536
3400.98	57.6624
3400.42	39.9142
3399.85	48.7768
3399.29	31.0351
3398.73	26.5976
3398.16	22.1614
3397.6	31.0213
3397.03	39.8786
3396.47	31.0121
3395.9	57.5853
3395.34	48.7188
3394.78	30.9982
3394.21	53.1319
3393.65	61.978
3393.08	22.1317
3392.52	22.1284
3391.95	39.8252
3391.39	48.668
3390.82	48.6608
3390.26	53.0766
3389.69	8.84479
3389.13	44.2173
3388.56	30.9475
3387.99	48.6246
3387.43	30.9383
3386.86	44.191
3386.3	22.0922
3385.73	39.7601
3385.17	22.0856
3384.6	44.1647
3384.03	26.4949
3383.47	44.1516
3382.9	52.974
3382.33	8.82768
3381.77	39.7187
3381.2	26.4752
3380.63	39.7068
3380.07	52.9346
3379.5	48.5161
3378.93	48.5089
3378.37	35.2739
3377.8	39.6773
3377.23	39.6714
3376.67	66.1091
3376.1	39.6595
3375.53	79.3073
3374.96	22.0265
3374.4	30.8325
3373.83	57.2519
3373.26	22.0167
3372.69	52.8321
3372.12	35.2162
3371.56	39.6123
3370.99	30.805
3370.42	35.2004
3369.85	39.5946
3369.28	52.7849
3368.72	35.1847
3368.15	30.782
3367.58	65.9516
3367.01	57.1496
3366.44	30.7683
3365.87	79.1066
3365.3	57.124
3364.73	30.7545
3364.17	70.2855
3363.6	39.5297
3363.03	21.9577
3362.46	26.3453
3361.89	26.3413
3361.32	26.3374
3360.75	52.667
3360.18	78.9887
3359.61	35.1008
3359.04	48.2565
3358.47	57.0218
3357.9	57.0133
3357.33	57.0048
3356.76	52.612
3356.19	56.9878
3355.62	48.2133
3355.05	52.5885
3354.48	48.1989
3353.91	78.8591
3353.34	43.8041
3352.77	43.7976
3352.19	39.4119
3351.62	35.0276
3351.05	26.2668
3350.48	17.5086
3349.91	61.2708
3349.34	83.1409
3348.77	35.0014
3348.2	52.4943
3347.62	48.1126
3347.05	34.9858
3346.48	43.7257
3345.91	61.2068
3345.34	17.4851
3344.76	48.0767
3344.19	78.6592
3343.62	48.0623
3343.05	61.1611
3342.48	48.048
3341.9	56.7755
3341.33	65.5004
3340.76	39.2944
3340.19	43.6539
3339.61	26.1884
3339.04	78.5535
3338.47	52.3612
3337.89	65.4417
3337.32	47.9834
3336.75	47.9763
3336.17	61.0516
3335.6	65.4026
3335.03	82.8309
3334.45	52.3065
3333.88	69.7315
3333.31	61.006
3332.73	69.7107
3332.16	43.5627
3331.59	60.9786
3331.01	47.9046
3330.44	56.6061
3329.86	43.5366
3329.29	34.8241
3328.71	60.933
3328.14	47.8688
3327.56	69.6169
3326.99	26.1024
3326.42	56.5468
3325.84	56.5384
3325.27	56.5299
3324.69	73.9127
3324.12	69.5545
3323.54	43.465
3322.97	56.4961
3322.39	56.4877
3321.81	52.1346
3321.24	56.4708
3320.66	26.0595
3320.09	82.5095
3319.51	39.0776
3318.94	108.533
3318.36	73.7911
3317.78	86.8001
3317.21	30.3755
3316.63	56.4032
3316.06	73.747
3315.48	52.0489
3314.9	56.3779
3314.33	39.025
3313.75	78.0383
3313.17	65.0222
3312.6	52.0099
3312.02	69.3362
3311.44	38.9958
3310.86	47.6544
3310.29	43.3157
3309.71	73.6256
3309.13	43.3027
3308.56	38.9666
3307.98	69.2636
3307.4	73.5815
3306.82	56.2598
3306.25	43.2703
3305.67	64.8957
3305.09	82.1889
3304.51	56.2261
3303.93	34.5955
3303.36	73.5044
3302.78	95.1091
3302.2	47.5474
3301.62	25.9311
3301.04	64.818
3300.46	56.1671
3299.88	60.4786
3299.31	56.1503
3298.73	56.1419
3298.15	51.8155
3297.57	43.1731
3296.99	99.2833
3296.41	47.4762
3295.83	51.7845
3295.25	51.7767
3294.67	34.5126
3294.09	73.3283
3293.51	56.0662
3292.93	60.3699
3292.35	81.9183
3291.77	81.906
3291.19	43.102
3290.61	51.7146
3290.03	73.2514
3289.45	47.3908
3288.87	38.7685
3288.29	90.4463
3287.71	47.3695
3287.13	30.1397
3286.55	43.0503
3285.97	43.0438
3285.39	47.3411
3284.81	34.4247
3284.23	60.2342
3283.64	51.6216
3283.06	51.6139
3282.48	86.0102
3281.9	85.9973
3281.32	47.2914
3280.74	85.9715
3280.16	64.4689
3279.57	42.9728
3278.99	30.0765
3278.41	73.0319
3277.83	81.6116
3277.25	51.5364
3276.66	64.4109
3276.08	38.6407
3275.5	85.8554
3274.92	85.8425
3274.33	85.8296
3273.75	38.6175
3273.17	72.9333
3272.59	60.0537
3272	85.7781
3271.42	60.0356
3270.84	94.3275
3270.25	60.0176
3269.67	72.8675
3269.09	98.5707
3268.5	55.7055
3267.92	55.6971
3267.34	34.27
3266.75	47.1142
3266.17	55.672
3265.59	68.5091
3265	89.9047
3264.42	64.208
3263.83	85.5978
3263.25	64.1887
3262.67	68.4577
3262.08	77.0033
3261.5	76.9917
3260.91	72.7035
3260.33	85.5206
3259.74	51.3047
3259.16	55.5717
3258.57	85.4821
3257.99	85.4692
3257.4	51.2738
3256.82	72.627
3256.23	46.9869
3255.65	98.2305
3255.06	64.0537
3254.48	72.5833
3253.89	59.7655
3253.3	38.4149
3252.72	102.424
3252.13	64.0056
3251.55	72.5288
3250.96	85.3151
3250.37	72.5069
3249.79	59.7026
3249.2	102.332
3248.62	55.4215
3248.03	55.4131
3247.44	76.7143
3246.86	72.4415
3246.27	59.6487
3245.68	93.7196
3245.09	63.8901
3244.51	97.9501
3243.92	80.9031
3243.33	85.1484
3242.75	110.676
3242.16	59.5859
3241.57	55.3214
3240.98	42.5485
3240.4	80.8301
3239.81	93.5786
3239.22	68.0469
3238.63	51.0275
3238.04	85.0331
3237.46	51.0121
3236.87	68.006
3236.28	46.7471
3235.69	80.7327
3235.1	80.7206
3234.51	72.2128
3233.93	76.4491
3233.34	46.7119
3232.75	84.9179
3232.16	55.1883
3231.57	93.3815
3230.98	72.1476
3230.39	63.65
3229.8	72.1258
3229.21	84.8411
3228.62	114.518
3228.04	67.8524
3227.45	67.8422
3226.86	80.5505
3226.27	67.8218
3225.68	89.0026
3225.09	67.8013
3224.5	72.028
3223.91	55.072
3223.32	105.892
3222.73	67.7604
3222.14	46.5783
3221.54	105.844
3220.95	63.4967
3220.36	46.5572
3219.77	97.3322
3219.18	29.6184
3218.59	105.764
3218	67.6787
3217.41	54.9807
3216.82	50.7437
3216.23	54.9641
3215.63	84.5474
3215.04	76.0812
3214.45	50.7131
3213.86	76.0582
3213.27	76.0467
3212.68	67.5869
3212.08	88.6944
3211.49	105.573
3210.9	80.2231
3210.31	88.6543
3209.72	63.3149
3209.12	59.085
3208.53	92.8339
3207.94	97.0389
3207.35	88.5874
3206.75	80.1384
3206.16	84.3435
3205.57	59.0315
3204.97	105.398
3204.38	92.7358
3203.79	67.434
3203.2	71.6379
3202.6	63.2003
3202.01	67.4035
3201.41	96.8779
3200.82	88.4404
3200.23	92.6378
3199.63	46.3119
3199.04	101.029
3198.45	71.5514
3197.85	79.9571
3197.26	92.5679
3196.66	50.484
3196.07	109.365
3195.47	92.5259
3194.88	63.0763
3194.29	84.0891
3193.69	84.0764
3193.1	88.2669
3192.5	63.0382
3191.91	84.0383
3191.31	63.0192
3190.72	75.6116
3190.12	58.8001
3189.53	58.7912
3188.93	92.3722
3188.33	88.1602
3187.74	96.5418
3187.14	75.543
3186.55	100.709
3185.95	83.9113
3185.36	62.924
3184.76	79.6916
3184.16	113.229
3183.57	67.0885
3182.97	104.81
3182.37	100.602
3181.78	88.0136
3181.18	92.1908
3180.58	92.1769
3179.99	100.541
3179.39	125.658
3178.79	75.3832
3178.2	92.1211
3177.6	79.5471
3177	71.163
3176.41	87.8939
3175.81	104.62
3175.21	50.2099
3174.61	83.6705
3174.02	71.1091
3173.42	71.0984
3172.82	112.904
3172.22	100.344
3171.62	104.509
3171.03	121.212
3170.43	83.5819
3169.83	91.9261
3169.23	116.979
3168.63	108.607
3168.03	87.7078
3167.43	112.75
3166.84	100.207
3166.24	79.3186
3165.64	100.177
3165.04	91.8148
3164.44	116.838
3163.84	91.787
3163.24	104.288
3162.64	112.614
3162.04	104.256
3161.44	116.749
3160.84	112.562
3160.24	137.555
3159.64	104.193
3159.04	95.8429
3158.44	104.161
3157.84	95.8139
3157.24	120.79
3156.64	116.608
3156.04	141.574
3155.44	141.552
3154.84	116.555
3154.24	99.8888
3153.64	112.358
3153.04	145.627
3152.44	128.964
3151.84	103.988
3151.24	116.449
3150.64	141.38
3150.03	141.359
3149.43	149.652
3148.83	116.378
3148.23	120.516
3147.63	120.498
3147.03	120.48
3146.42	112.154
3145.82	128.749
3145.22	116.272
3144.62	112.103
3144.02	136.993
3143.41	132.822
3142.81	103.751
3142.21	116.184
3141.61	116.166
3141	120.297
3140.4	149.311
3139.8	116.114
3139.19	103.657
3138.59	136.807
3137.99	111.916
3137.39	128.476
3136.78	120.169
3136.18	132.58
3135.58	157.415
3134.97	153.249
3134.37	136.661
3133.76	115.937
3133.16	128.34
3132.56	140.738
3131.95	120.023
3131.35	120.005
3130.74	86.887
3130.14	119.969
3129.54	124.087
3128.93	140.61
3128.33	90.9692
3127.72	119.896
3127.12	115.744
3126.51	165.323
3125.91	144.636
3125.3	111.559
3124.7	140.461
3124.09	128.048
3123.49	107.379
3122.88	132.138
3122.27	144.504
3121.67	132.098
3121.06	127.95
3120.46	123.804
3119.85	103.154
3119.25	111.39
3118.64	148.497
3118.03	136.102
3117.43	115.463
3116.82	115.445
3116.21	164.897
3115.61	136.019
3115	123.635
3114.39	127.737
3113.79	144.197
3113.18	98.8628
3112.57	119.441
3111.97	160.603
3111.36	164.696
3110.75	127.62
3110.15	148.181
3109.54	119.35
3108.93	127.562
3108.32	135.771
3107.71	131.637
3107.11	143.956
3106.5	139.821
3105.89	139.8
3105.28	119.223
3104.67	131.537
3104.07	123.297
3103.46	115.06
3102.85	184.889
3102.24	139.673
3101.63	135.544
3101.02	143.737
3100.41	151.927
3099.81	180.643
3099.2	151.881
3098.59	151.858
3097.98	160.042
3097.37	172.327
3096.76	196.915
3096.15	151.765
3095.54	135.338
3094.93	159.92
3094.32	147.596
3093.71	163.971
3093.1	184.439
3092.49	192.607
3091.88	213.065
3091.27	155.677
3090.66	151.558
3090.05	176.108
3089.44	208.84
3088.83	229.28
3088.22	176.027
3087.61	167.814
3087	196.435
3086.39	208.681
3085.77	208.649
3085.16	143.169
3084.55	171.776
3083.94	208.554
3083.33	216.699
3082.72	208.49
3082.11	228.895
3081.49	212.513
3080.88	179.792
3080.27	179.764
3079.66	228.756
3079.05	216.468
3078.43	208.268
3077.82	261.316
3077.21	240.864
3076.6	244.909
3075.98	253.034
3075.37	236.673
3074.76	244.797
3074.15	252.918
3073.53	232.486
3072.92	220.216
3072.31	289.499
3071.69	256.841
3071.08	277.182
3070.47	264.913
3069.85	248.573
3069.24	260.758
3068.63	293.308
3068.01	305.483
3067.4	260.639
3066.79	354.252
3066.17	378.625
3065.56	317.508
3064.94	354.09
3064.33	394.729
3063.71	362.119
3063.1	475.972
3062.48	484.034
3061.87	528.696
3061.26	467.621
3060.64	561.06
3060.03	577.234
3059.41	621.854
3058.79	629.887
3058.18	646.043
3057.56	751.571
3056.95	686.465
3056.33	710.728
3055.72	804.015
3055.1	730.812
3054.49	799.71
3053.87	840.176
3053.25	767
3052.64	766.883
3052.02	722.139
3051.41	693.635
3050.79	677.306
3050.17	660.982
3049.56	685.208
3048.94	644.564
3048.32	547.188
3047.71	530.894
3047.09	559.177
3046.47	550.989
3045.85	530.65
3045.24	562.971
3044.62	506.191
3044	514.212
3043.38	445.312
3042.77	465.482
3042.15	449.223
3041.53	469.386
3040.91	465.269
3040.3	424.746
3039.68	489.394
3039.06	473.143
3038.44	428.594
3037.82	420.443
3037.2	367.831
3036.59	323.319
3035.97	335.392
3035.35	286.858
3034.73	290.853
3034.11	290.809
3033.49	278.649
3032.87	262.455
3032.25	266.452
3031.63	250.265
3031.01	270.407
3030.39	282.471
3029.77	217.873
3029.15	270.283
3028.54	213.773
3027.92	213.74
3027.3	221.772
3026.68	205.612
3026.05	217.673
3025.43	205.549
3024.81	213.577
3024.19	205.486
3023.57	245.739
3022.95	221.534
3022.33	189.282
3021.71	213.413
3021.09	237.537
3020.47	217.373
3019.85	233.439
3019.23	213.282
3018.61	229.344
3017.98	221.263
3017.36	189.05
3016.74	225.217
3016.12	209.098
3015.5	168.861
3014.88	209.034
3014.25	221.06
3013.63	208.97
3013.01	229.028
3012.39	212.923
3011.76	200.84
3011.14	212.858
3010.52	252.981
3009.9	212.793
3009.27	172.617
3008.65	184.631
3008.03	196.642
3007.4	200.625
3006.78	184.546
3006.16	228.642
3005.54	220.586
3004.91	216.542
3004.29	204.48
3003.66	212.467
3003.04	188.385
3002.42	192.364
3001.79	224.39
3001.17	268.425
3000.54	228.327
2999.92	220.281
2999.3	192.216
2998.67	196.19
2998.05	200.164
2997.42	212.141
2996.8	184.094
2996.17	220.079
2995.55	176.036
2994.92	200.01
2994.3	211.978
2993.67	199.949
2993.05	199.918
2992.42	227.871
2991.8	219.842
2991.17	175.847
2990.55	203.791
2989.92	211.75
2989.29	239.681
2988.67	231.656
2988.04	223.633
2987.42	255.542
2986.79	231.549
2986.16	251.471
2985.54	195.559
2984.91	291.298
2984.28	227.417
2983.66	271.263
2983.03	259.255
2982.4	215.348
2981.78	243.227
2981.15	255.149
2980.52	251.124
2979.9	235.143
2979.27	243.077
2978.64	171.323
2978.01	246.986
2977.39	246.948
2976.76	250.892
2976.13	215.018
2975.5	246.834
2974.87	242.816
2974.25	206.959
2973.62	206.927
2972.99	234.746
2972.36	246.644
2971.73	266.494
2971.1	238.615
2970.47	266.412
2969.85	206.736
2969.22	206.704
2968.59	234.494
2967.96	190.745
2967.33	230.448
2966.7	254.249
2966.07	222.433
2965.44	258.142
2964.81	222.365
2964.18	258.062
2963.55	230.236
2962.92	242.107
2962.29	269.848
2961.66	269.807
2961.03	273.732
2960.4	297.489
2959.77	214.159
2959.14	253.779
2958.51	233.917
2957.88	273.522
2957.25	305.187
2956.62	257.586
2955.99	332.829
2955.36	293.162
2954.73	277.272
2954.09	249.507
2953.46	253.428
2952.83	316.736
2952.2	273.143
2951.57	249.353
2950.94	241.4
2950.3	320.498
2949.67	296.712
2949.04	249.199
2948.41	296.62
2947.78	288.666
2947.14	280.714
2946.51	320.202
2945.88	264.817
2945.25	276.632
2944.61	312.151
2943.98	300.251
2943.35	276.504
2942.71	300.159
2942.08	280.368
2941.45	252.687
2940.82	280.282
2940.18	315.762
2939.55	319.659
2938.91	232.802
2938.28	284.054
2937.65	264.287
2937.01	252.415
2936.38	287.866
2935.75	327.249
2935.11	295.662
2934.48	291.674
2933.84	244.338
2933.21	279.763
2932.57	311.238
2931.94	287.555
2931.3	334.773
2930.67	318.97
2930.03	303.172
2929.4	267.695
2928.76	267.653
2928.13	283.354
2927.49	279.375
2926.86	283.266
2926.22	267.488
2925.59	318.576
2924.95	263.473
2924.32	330.274
2923.68	306.635
2923.04	279.074
2922.41	298.681
2921.77	314.352
2921.13	278.944
2920.5	306.399
2919.86	306.351
2919.23	282.742
2918.59	282.699
2917.95	282.655
2917.31	266.911
2916.68	306.115
2916.04	282.524
2915.4	290.327
2914.77	270.668
2914.13	270.627
2913.49	317.643
2912.85	345.04
2912.22	305.784
2911.58	305.737
2910.94	270.418
2910.3	329.153
2909.66	309.513
2909.03	305.548
2908.39	317.251
2907.75	289.789
2907.11	356.307
2906.47	293.614
2905.83	340.54
2905.19	289.61
2904.56	316.957
2903.92	312.995
2903.28	316.859
2902.64	320.721
2902	316.761
2901.36	320.622
2900.72	301.025
2900.08	336.158
2899.44	304.84
2898.8	308.701
2898.16	328.188
2897.52	316.418
2896.88	355.427
2896.24	324.13
2895.6	324.08
2894.96	288.894
2894.32	359.11
2893.68	284.902
2893.04	335.586
2892.4	347.239
2891.76	362.789
2891.12	347.131
2890.48	374.376
2889.83	265.142
2889.19	362.564
2888.55	378.1
2887.91	307.89
2887.27	370.19
2886.63	331.171
2885.98	327.224
2885.34	350.543
2884.7	315.44
2884.06	327.072
2883.42	323.128
2882.77	369.789
2882.13	346.38
2881.49	334.652
2880.85	377.398
2880.2	350.109
2879.56	342.276
2878.92	350.001
2878.28	287.734
2877.63	342.117
2876.99	357.612
2876.35	361.443
2875.7	330.3
2875.06	369.102
2874.42	357.391
2873.77	361.219
2873.13	361.163
2872.48	380.522
2871.84	357.169
2871.2	345.469
2870.55	314.367
2869.91	329.84
2869.26	314.269
2868.62	376.289
2867.98	356.837
2867.33	298.611
2866.69	356.726
2866.04	391.563
2865.4	383.75
2864.75	337.182
2864.11	418.506
2863.46	426.19
2862.82	449.367
2862.17	383.452
2861.52	422.119
2860.88	375.589
2860.23	340.688
2859.59	387.085
2858.94	367.674
2858.29	398.574
2857.65	340.476
2857	417.792
2856.36	379.049
2855.71	394.459
2855.06	382.798
2854.42	386.605
2853.77	413.603
2853.12	374.89
2852.48	363.239
2851.83	367.047
2851.18	417.209
2850.53	363.07
2849.89	420.942
2849.24	409.292
2848.59	424.671
2847.94	351.265
2847.3	393.664
2846.65	424.474
2846	370.392
2845.35	435.915
2844.7	443.561
2844.06	377.933
2843.41	404.865
2842.76	343.118
2842.11	435.576
2841.46	362.282
2840.81	412.32
2840.16	392.992
2839.52	385.226
2838.87	400.573
2838.22	465.979
2837.57	427.402
2836.92	423.486
2836.27	381.078
2835.62	388.716
2834.97	407.896
2834.32	427.07
2833.67	438.544
2833.02	426.937
2832.37	442.253
2831.72	407.579
2831.07	449.805
2830.42	418.984
2829.77	415.075
2829.12	403.483
2828.47	372.683
2827.82	418.723
2827.17	460.908
2826.51	410.912
2825.86	383.971
2825.21	449.176
2824.56	452.944
2823.91	429.846
2823.26	429.779
2822.61	395.182
2821.96	433.482
2821.3	460.263
2820.65	387.328
2820	421.776
2819.35	506.053
2818.7	452.31
2818.04	421.58
2817.39	459.833
2816.74	444.436
2816.09	421.383
2815.43	455.789
2814.78	428.911
2814.13	444.16
2813.47	440.262
2812.82	455.505
2812.17	436.298
2811.51	443.883
2810.86	474.422
2810.21	413.142
2809.55	478.099
2808.9	416.837
2808.25	443.538
2807.59	397.592
2806.94	470.156
2806.28	496.836
2805.63	450.904
2804.98	450.833
2804.32	469.863
2803.67	458.332
2803.01	450.623
2802.36	469.644
2801.7	450.482
2801.05	500.034
2800.39	496.139
2799.74	473.167
2799.08	476.908
2798.43	492.093
2797.77	476.76
2797.12	480.499
2796.46	427.043
2795.8	446.038
2795.15	449.78
2794.49	442.088
2793.84	461.072
2793.18	476.24
2792.52	453.309
2791.87	434.195
2791.21	487.441
2790.55	475.942
2789.9	479.675
2789.24	456.762
2788.58	471.914
2787.93	517.502
2787.27	448.939
2786.61	513.537
2785.95	517.26
2785.3	509.574
2784.64	498.088
2783.98	524.621
2783.32	444.718
2782.67	482.653
2782.01	448.379
2781.35	478.703
2780.69	448.239
2780.03	486.15
2779.38	516.453
2778.72	501.185
2778.06	520.088
2777.4	531.394
2776.74	527.516
2776.08	512.256
2775.42	512.176
2774.76	508.302
2774.11	568.906
2773.45	519.52
2772.79	561.146
2772.13	481.448
2771.47	538.228
2770.81	511.616
2770.15	545.638
2769.49	545.553
2768.83	477.284
2768.17	541.595
2767.51	530.15
2766.85	507.35
2766.19	454.273
2765.53	495.837
2764.87	541.172
2764.21	518.385
2763.55	552.353
2762.88	529.571
2762.22	635.385
2761.56	559.657
2760.9	533.103
2760.24	506.558
2759.58	544.275
2758.92	555.528
2758.26	597.004
2757.59	536.464
2756.93	574.154
2756.27	540.073
2755.61	570.198
2754.95	555.006
2754.28	528.495
2753.62	547.284
2752.96	588.71
2752.3	599.938
2751.63	633.797
2750.97	569.574
2750.31	637.37
2749.64	637.27
2748.98	557.996
2748.32	561.678
2747.65	538.976
2746.99	569.039
2746.33	523.735
2745.66	591.465
2745	549.938
2744.34	561.151
2743.67	527.173
2743.01	538.385
2742.34	575.944
2741.68	575.854
2741.02	579.527
2740.35	688.551
2739.69	579.346
2739.02	650.722
2738.36	575.403
2737.69	567.793
2737.03	616.579
2736.36	590.169
2735.7	567.526
2735.03	650.11
2734.37	619.95
2733.7	601.07
2733.04	668.585
2732.37	574.593
2731.7	551.973
2731.04	551.887
2730.37	533.031
2729.71	619.27
2729.04	574.142
2728.37	585.308
2727.71	592.719
2727.04	645.138
2726.37	615.035
2725.71	607.439
2725.04	588.599
2724.37	637.236
2723.71	573.423
2723.04	633.289
2722.37	666.91
2721.71	614.36
2721.04	632.991
2720.37	659.106
2719.7	681.469
2719.03	658.9
2718.37	640.081
2717.7	617.525
2717.03	609.944
2716.36	643.521
2715.69	606.012
2715.03	579.735
2714.36	684.354
2713.69	635.639
2713.02	613.108
2712.35	609.274
2711.68	635.339
2711.01	627.766
2710.34	623.932
2709.67	646.247
2709.01	631.206
2708.34	627.372
2707.67	601.137
2707	630.908
2706.33	675.601
2705.66	626.978
2704.99	638.074
2704.32	686.475
2703.65	615.492
2702.98	686.259
2702.31	656.319
2701.64	630.116
2700.96	749.31
2700.29	637.373
2699.62	644.726
2698.95	678.16
2698.28	674.328
2697.61	700.297
2696.94	681.565
2696.27	662.839
2695.6	647.842
2694.92	707.302
2694.25	696.025
2693.58	707.08
2692.91	636.272
2692.24	703.137
2691.57	684.428
2690.89	710.354
2690.22	654.465
2689.55	665.516
2688.88	624.52
2688.2	709.908
2687.53	676.35
2686.86	694.822
2686.18	735.578
2685.51	661.173
2684.84	661.069
2684.17	683.245
2683.49	690.563
2682.82	657.045
2682.14	679.211
2681.47	745.901
2680.8	701.26
2680.12	738.247
2679.45	693.62
2678.78	671.26
2678.1	704.526
2677.43	704.415
2676.75	733.959
2676.08	715.313
2675.4	670.732
2674.73	707.677
2674.05	644.589
2673.38	737.086
2672.7	725.86
2672.03	733.151
2671.35	762.653
2670.68	736.622
2670	725.403
2669.33	743.791
2668.65	732.574
2667.98	739.857
2667.3	754.535
2666.62	747.02
2665.95	746.903
2665.27	802.239
2664.59	802.113
2663.92	735.462
2663.24	787.079
2662.56	738.925
2661.89	760.973
2661.21	757.16
2660.53	720.111
2659.86	734.767
2659.18	790.027
2658.5	841.578
2657.83	767.635
2657.15	719.544
2656.47	793.218
2655.79	800.471
2655.11	733.957
2654.44	748.591
2653.76	825.902
2653.08	870.009
2652.4	792.468
2651.72	858.679
2651.05	840.12
2650.37	781.041
2649.69	814.07
2649.01	773.428
2648.33	791.718
2647.65	810.003
2646.97	773.062
2646.29	850.235
2645.61	857.461
2644.93	857.325
2644.25	750.501
2643.57	834.985
2642.9	820.142
2642.22	812.658
2641.54	827.236
2640.86	775.641
2640.18	845.352
2639.49	867.268
2638.81	764.251
2638.13	859.647
2637.45	826.453
2636.77	844.685
2636.09	851.896
2635.41	862.775
2634.73	877.322
2634.05	851.492
2633.37	836.679
2632.69	792.518
2632	862.094
2631.32	781.264
2630.64	799.477
2629.96	894.686
2629.28	795.558
2628.6	850.417
2627.91	857.612
2627.23	883.128
2626.55	908.635
2625.87	904.828
2625.18	835.094
2624.5	776.368
2623.82	849.476
2623.14	863.986
2622.45	896.793
2621.77	845.414
2621.09	881.872
2620.4	867.098
2619.72	841.355
2619.04	877.797
2618.35	830.118
2617.67	862.894
2616.98	855.446
2616.3	855.31
2615.62	866.139
2614.93	807.538
2614.25	865.865
2613.56	913.215
2612.88	843.677
2612.19	931.185
2611.51	865.317
2610.83	898.035
2610.14	981.842
2609.46	832.062
2608.77	886.662
2608.08	886.522
2607.4	919.211
2606.71	842.476
2606.03	911.627
2605.34	845.856
2604.66	947.792
2603.97	892.97
2603.28	921.982
2602.6	889.044
2601.91	965.407
2601.23	961.611
2600.54	910.473
2599.85	924.894
2599.17	891.981
2598.48	990.124
2597.79	902.617
2597.11	877.001
2596.42	927.8
2595.73	920.377
2595.04	938.418
2594.36	952.816
2593.67	869.034
2592.98	897.981
2592.29	948.728
2591.61	1014
2590.92	995.667
2590.23	911.945
2589.54	969.923
2588.85	1060.57
2588.16	947.826
2587.48	976.724
2586.79	925.744
2586.1	980.044
2585.41	1023.44
2584.72	943.447
2584.03	975.95
2583.34	943.148
2582.65	1019.16
2581.96	997.244
2581.27	1040.59
2580.58	1015.05
2579.9	996.769
2579.21	971.243
2578.52	1018.19
2577.83	1032.52
2577.14	1014.25
2576.44	948.896
2575.75	1075.49
2575.06	948.595
2574.37	1002.74
2573.68	1009.82
2572.99	1035
2572.3	1031.21
2571.61	1012.96
2570.92	965.778
2570.23	1023.49
2569.54	1070.34
2568.84	979.78
2568.15	1088.07
2567.46	1069.83
2566.77	1062.43
2566.08	982.771
2565.39	1134.34
2564.69	1025.8
2564	1076.2
2563.31	1043.53
2562.62	1025.31
2561.92	1028.76
2561.23	1111.61
2560.54	1068.13
2559.85	1067.96
2559.15	1103.86
2558.46	955.807
2557.77	1060.24
2557.07	1070.89
2556.38	1049.08
2555.69	1081.36
2554.99	1095.6
2554.3	1095.43
2553.6	1142.09
2552.91	1105.89
2552.22	1127.32
2551.52	1080.33
2550.83	1062.15
2550.13	1083.58
2549.44	1101.41
2548.74	1144.42
2548.05	1137.04
2547.35	1129.66
2546.66	1226.61
2545.96	1204.83
2545.27	1168.68
2544.57	1204.45
2543.88	1175.5
2543.18	1157.34
2542.49	1142.78
2541.79	1203.68
2541.1	1228.64
2540.4	1192.52
2539.7	1271.34
2539.01	1317.82
2538.31	1321.2
2537.61	1288.69
2536.92	1381.8
2536.22	1352.87
2535.52	1248.6
2534.83	1241.23
2534.13	1294.83
2533.43	1326.9
2532.74	1315.94
2532.04	1333.65
2531.34	1297.59
2530.64	1315.31
2529.95	1354.51
2529.25	1332.8
2528.55	1325.43
2527.85	1328.8
2527.15	1342.91
2526.46	1288.99
2525.76	1288.78
2525.06	1392.38
2524.36	1306.27
2523.66	1352.57
2522.96	1384.56
2522.26	1277.02
2521.57	1419.88
2520.87	1355.29
2520.17	1380.1
2519.47	1383.45
2518.77	1418.98
2518.07	1322.26
2517.37	1289.89
2516.67	1443.31
2515.97	1450.22
2515.27	1317.85
2514.57	1410.48
2513.87	1438.82
2513.17	1324.36
2512.47	1370.54
2511.77	1298.95
2511.07	1370.11
2510.37	1419.83
2509.66	1398.2
2508.96	1397.98
2508.26	1290.79
2507.56	1344.06
2506.86	1479.3
2506.16	1240.27
2505.46	1389.74
2504.76	1261.25
2504.05	1307.36
2503.35	1324.96
2502.65	1339
2501.95	1303.18
2501.25	1292.29
2500.54	1324.12
2499.84	1259.85
2499.14	1337.93
2498.44	1344.83
2497.73	1301.93
2497.03	1312.39
2496.33	1258.84
2495.62	1383.08
2494.92	1297.54
2494.22	1293.78
2493.51	1329.11
2492.81	1332.45
2492.11	1332.24
2491.4	1204.15
2490.7	1267.89
2489.99	1303.19
2489.29	1196.48
2488.59	1267.28
2487.88	1299.02
2487.18	1305.91
2486.47	1344.73
2485.77	1284.21
2485.06	1340.75
2484.36	1305.08
2483.65	1322.6
2482.95	1272.75
2482.24	1393.07
2481.54	1336.14
2480.83	1332.38
2480.13	1261.31
2479.42	1254.02
2478.71	1292.78
2478.01	1228.83
2477.3	1253.42
2476.6	1292.16
2475.89	1341.51
2475.18	1334.22
2474.48	1341.08
2473.77	1365.63
2473.06	1340.65
2472.36	1305.07
2471.65	1287.18
2470.94	1347.08
2470.24	1318.58
2469.53	1314.84
2468.82	1346.43
2468.11	1261.42
2467.41	1335.4
2466.7	1335.19
2465.99	1338.51
2465.28	1348.89
2464.57	1292.18
2463.87	1355.52
2463.16	1334.12
2462.45	1355.08
2461.74	1344.28
2461.03	1333.48
2460.32	1386.18
2459.61	1273.1
2458.9	1389.26
2458.2	1332.63
2457.49	1399.39
2456.78	1409.74
2456.07	1296.75
2455.36	1359.96
2454.65	1324.52
2453.94	1377.13
2453.23	1362.83
2452.52	1359.09
2451.81	1397.6
2451.1	1344.57
2450.39	1330.28
2449.68	1386.37
2448.97	1379.11
2448.26	1354.26
2447.55	1350.53
2446.83	1385.48
2446.12	1364.16
2445.41	1335.82
2444.7	1367.24
2443.99	1367.02
2443.28	1363.29
2442.57	1338.48
2441.85	1324.21
2441.14	1453.94
2440.43	1379.97
2439.72	1369.22
2439.01	1393.57
2438.29	1467.05
2437.58	1470.32
2436.87	1399.91
2436.16	1473.36
2435.44	1431.03
2434.73	1402.75
2434.02	1444.6
2433.3	1433.85
2432.59	1437.12
2431.88	1485.96
2431.16	1391.11
2430.45	1450.45
2429.74	1425.69
2429.02	1404.45
2428.31	1376.21
2427.6	1397
2426.88	1568.31
2426.17	1365.05
2425.45	1427.82
2424.74	1392.6
2424.02	1476.34
2423.31	1462.11
2422.59	1479.36
2421.88	1409.19
2421.16	1440.43
2420.45	1408.74
2419.73	1527.34
2419.02	1457.21
2418.3	1509.38
2417.59	1379.89
2416.87	1463.49
2416.16	1519.13
2415.44	1578.25
2414.72	1508.17
2414.01	1389.25
2413.29	1483.26
2412.57	1542.34
2411.86	1521.16
2411.14	1437.19
2410.42	1597.4
2409.71	1534.37
2408.99	1436.5
2408.27	1481.59
2407.56	1439.52
2406.84	1474.14
2406.12	1470.42
2405.4	1546.83
2404.69	1452.53
2403.97	1518.47
2403.25	1532.15
2402.53	1552.8
2401.81	1542.1
2401.1	1527.93
2400.38	1548.57
2399.66	1513.52
2398.94	1579.38
2398.22	1582.6
2397.5	1617.12
2396.78	1602.96
2396.06	1508.83
2395.35	1574.63
2394.63	1570.9
2393.91	1525.48
2393.19	1563.45
2392.47	1601.41
2391.75	1615.04
2391.03	1486.3
2390.31	1614.52
2389.59	1583.02
2388.87	1509.87
2388.15	1599.86
2387.43	1540.62
2386.71	1571.59
2385.98	1675.4
2385.26	1560.68
2384.54	1667.93
2383.82	1587.91
2383.1	1632.72
2382.38	1708.71
2381.66	1607.94
2380.94	1569.57
2380.21	1597.03
2379.49	1631.41
2378.77	1617.29
2378.05	1672.43
2377.33	1582.15
2376.6	1633.82
2375.88	1623.17
2375.16	1602.15
2374.44	1664.17
2373.71	1688.11
2372.99	1639.42
2372.27	1670.28
2371.55	1628.52
2370.82	1666.28
2370.1	1693.67
2369.38	1648.47
2368.65	1627.47
2367.93	1703.21
2367.21	1754.75
2366.48	1657.76
2365.76	1616.06
2365.03	1743.54
2364.31	1663.87
2363.58	1725.72
2362.86	1711.64
2362.14	1780.37
2361.41	1690.39
2360.69	1631.48
2359.96	1610.53
2359.24	1696.47
2358.51	1741.01
2357.79	1726.94
2357.06	1692.2
2356.33	1685.03
2355.61	1753.67
2354.88	1698.27
2354.16	1759.99
2353.43	1694.28
2352.71	1790.41
2351.98	1759.14
2351.25	1700.34
2350.53	1672.54
2349.8	1665.38
2349.07	1671.99
2348.35	1723.32
2347.62	1723.04
2346.89	1684.94
2346.17	1698.42
2345.44	1815.02
2344.71	1790.67
2343.98	1728.52
2343.26	1848.5
2342.53	1776.06
2341.8	1786.08
2341.07	1809.83
2340.34	1720.26
2339.62	1781.78
2338.89	1726.57
2338.16	1774.34
2337.43	1774.05
2336.7	1725.73
2335.97	1780.34
2335.24	1786.91
2334.52	1728.32
2333.79	1728.04
2333.06	1830.61
2332.33	1809.75
2331.6	1843.72
2330.87	1905.1
2330.14	1750.63
2329.41	1805.15
2328.68	1818.56
2327.95	1804.57
2327.22	1862.48
2326.49	1800.56
2325.76	1844.76
2325.03	1858.15
2324.3	1888.64
2323.57	1922.55
2322.83	1877.77
2322.1	1939.02
2321.37	1911.36
2320.64	1955.49
2319.91	1927.83
2319.18	1930.93
2318.45	1964.79
2317.71	1954.22
2316.98	1970.99
2316.25	1926.27
2315.52	2035.23
2314.79	2021.24
2314.05	1983.36
2313.32	1942.08
2312.59	1890.58
2311.86	1999.46
2311.12	2036.66
2310.39	2029.51
2309.66	1984.85
2308.92	1953.84
2308.19	1881.93
2307.46	1932.75
2306.72	2021.05
2305.99	1843.53
2305.26	1942.03
2304.52	1856.55
2303.79	1944.81
2303.05	2005.79
2302.32	1869.27
2301.59	1988.12
2300.85	1974.18
2300.12	1950.04
2299.38	1990.55
2298.65	1932.4
2297.91	1823.23
2297.18	1975.98
2296.44	1911.05
2295.71	1846.15
2294.97	1964.82
2294.24	1967.9
2293.5	1984.58
2292.76	1912.9
2292.03	1919.39
2291.29	1932.66
2290.56	1922.16
2289.82	1986.36
2289.08	1975.85
2288.35	1907.65
2287.61	1876.79
2286.87	2019
2286.14	1947.43
2285.4	1892.84
2284.66	2024.8
2283.93	2034.65
2283.19	2020.76
2282.45	1986.53
2281.71	1948.92
2280.98	2002.83
2280.24	2083.82
2279.5	1924.26
2278.76	2015.4
2278.02	1893.15
2277.29	1953.8
2276.55	2007.65
2275.81	1993.78
2275.07	1976.53
2274.33	2030.36
2273.59	2033.41
2272.85	2022.93
2272.11	2053.04
2271.37	2049.33
2270.64	2005.04
2269.9	2058.8
2269.16	2058.47
2268.42	2078.41
2267.68	2057.8
2266.94	2047.33
2266.2	2050.37
2265.46	2141.23
2264.72	2083.48
2263.98	1981.85
2263.23	2109.8
2262.49	2018.33
2261.75	1970.76
2261.01	2027.8
2260.27	2105.06
2259.53	2074.36
2258.79	1999.83
2258.05	2080.43
2257.31	2120.54
2256.56	2110.09
2255.82	2015.38
2255.08	2102.66
2254.34	2095.58
2253.6	2051.45
2252.85	2064.59
2252.11	2104.66
2251.37	2084.12
2250.63	2070.31
2249.88	2100.27
2249.14	2177.33
2248.4	2099.58
2247.65	2072.33
2246.91	2075.35
2246.17	2118.74
2245.42	2064.59
2244.68	2134.86
2243.94	2074
2243.19	2120.72
2242.45	2164.06
2241.71	2180.5
2240.96	2203.66
2240.22	2109.26
2239.47	2176.08
2238.73	2175.72
2237.98	2182.08
2237.24	2138.09
2236.49	2127.68
2235.75	2264.9
2235	2271.24
2234.26	2083.03
2233.51	2055.86
2232.77	2290.25
2232.02	2132.3
2231.28	2081.67
2230.53	2181.88
2229.78	2255.25
2229.04	2218.02
2228.29	2190.86
2227.54	2264.19
2226.8	2206.89
2226.05	2260.11
2225.3	2152.61
2224.56	2195.77
2223.81	2222.19
2223.06	2191.71
2222.32	2208.08
2221.57	2174.27
2220.82	2240.8
2220.07	2116.71
2219.33	2270.16
2218.58	2333.31
2217.83	2229.31
2217.08	2342.57
2216.33	2278.7
2215.59	2234.9
2214.84	2384.84
2214.09	2274.25
2213.34	2447.51
2212.59	2270.17
2211.84	2389.96
2211.09	2296.13
2210.34	2359.15
2209.59	2308.72
2208.84	2238.29
2208.09	2187.9
2207.35	2257.57
2206.6	2337.22
2205.85	2256.83
2205.1	2336.46
2204.35	2492.7
2203.59	2292.38
2202.84	2381.95
2202.09	2364.91
2201.34	2324.56
2200.59	2340.83
2199.84	2360.42
2199.09	2316.76
2198.34	2303.07
2197.59	2409.17
2196.84	2342.24
2196.09	2395.08
2195.33	2404.67
2194.58	2324.46
2193.83	2427.15
2193.08	2330.35
2192.33	2413.07
2191.57	2366.15
2190.82	2515.28
2190.07	2372.02
2189.32	2428.1
2188.56	2321.42
2187.81	2443.9
2187.06	2493.3
2186.3	2409.91
2185.55	2535.63
2184.8	2369.3
2184.04	2511.58
2183.29	2507.85
2182.54	2524.02
2181.78	2434.07
2181.03	2599.46
2180.27	2433.28
2179.52	2512.43
2178.77	2488.82
2178.01	2491.72
2177.26	2421.75
2176.5	2454.47
2175.75	2497.12
2174.99	2397.38
2174.24	2522.79
2173.48	2519.07
2172.73	2429.3
2171.97	2498.39
2171.22	2481.44
2170.46	2461.18
2169.7	2576.54
2168.95	2546.36
2168.19	2512.88
2167.44	2495.93
2166.68	2591.38
2165.92	2597.56
2165.17	2550.88
2164.41	2408.4
2163.65	2599.59
2162.9	2691.64
2162.14	2496.37
2161.38	2476.16
2160.62	2696.92
2159.87	2557.85
2159.11	2527.74
2158.35	2583.41
2157.59	2665.46
2156.83	2575.97
2156.08	2611.82
2155.32	2601.5
2154.56	2604.37
2153.8	2577.57
2153.04	2600.22
2152.28	2636.04
2151.53	2661.96
2150.77	2569.29
2150.01	2703.9
2149.25	2650.77
2148.49	2647.05
2147.73	2597.23
2146.97	2606.68
2146.21	2685.23
2145.45	2546.6
2144.69	2681.06
2143.93	2647.73
2143.17	2657.16
2142.41	2742.21
2141.65	2554.38
2140.89	2547.38
2140.13	2816.45
2139.37	2585.98
2138.61	2651.26
2137.85	2667.25
2137.08	2601.12
2136.32	2571.14
2135.56	2695.48
2134.8	2583.43
2134.04	2622.39
2133.28	2595.71
2132.51	2572.31
2131.75	2575.17
2130.99	2561.63
2130.23	2636.63
2129.47	2780.47
2128.7	2721
2127.94	2697.61
2127.18	2661.12
2126.41	2650.85
2125.65	2745.42
2124.89	2754.8
2124.12	2777.27
2123.36	2645.83
2122.6	2671.59
2121.83	2736.62
2121.07	2700.17
2120.31	2719.36
2119.54	2751.63
2118.78	2626.87
2118.01	2597
2117.25	2668.51
2116.48	2697.5
2115.72	2831.09
2114.95	2771.79
2114.19	2836.7
2113.42	2816.63
2112.66	2744.29
2111.89	2694.84
2111.13	2847.9
2110.36	2811.51
2109.6	2827.37
2108.83	2725.71
2108.07	2849.29
2107.3	2842.29
2106.53	2770.04
2105.77	2743.49
2105	2906.12
2104.23	2719.76
2103.47	2778
2102.7	2852.52
2101.93	2832.5
2101.17	2851.58
2100.4	2652.35
2099.63	2831.1
2098.86	2788.28
2098.1	2722.69
2097.33	2761.32
2096.56	2855.28
2095.79	2805.98
2095.02	2766.46
2094.26	2811.56
2093.49	2814.35
2092.72	2875.7
2091.95	2832.94
2091.18	2858.49
2090.41	2903.54
2089.64	2825.04
2088.87	2866.83
2088.11	2895.6
2087.34	2791.15
2086.57	2767.94
2085.8	2851.94
2085.03	2838.48
2084.26	2889.97
2083.49	2866.76
2082.72	2953.94
2081.95	2911.26
2081.18	2845.88
2080.41	2916.78
2079.63	2922.79
2078.86	2909.33
2078.09	2792.11
2077.32	2960.25
2076.55	2894.93
2075.78	2897.69
2075.01	2842.12
2074.24	2870.81
2073.47	2948.09
2072.69	2947.6
2071.92	2840.24
2071.15	2966.06
2070.38	2991.47
2069.6	2858.26
2068.83	3042.27
2068.06	2967.34
2067.29	2963.61
2066.51	2904.89
2065.74	2907.65
2064.97	2997.71
2064.19	2964.89
2063.42	2857.72
2062.65	2960.67
2061.87	2924.64
2061.1	2966.16
2060.33	2978.59
2059.55	2919.96
2058.78	2893.64
2058	3038.46
2057.23	3044.42
2056.46	3018.09
2055.68	3030.5
2054.91	2978.37
2054.13	2842.38
2053.36	2990.29
2052.58	3022.05
2051.81	3021.55
2051.03	3001.7
2050.26	3091.47
2049.48	2987.82
2048.7	2993.77
2047.93	3106.05
2047.15	2976.67
2046.38	3014.83
2045.6	3020.77
2044.82	3091.11
2044.05	3138.89
2043.27	3086.87
2042.49	3009.12
2041.72	3092.28
2040.94	3056.38
2040.16	3065.53
2039.38	3129.34
2038.61	3077.38
2037.83	3089.73
2037.05	3272.45
2036.27	3156.2
2035.5	3110.69
2034.72	3071.62
2033.94	2929.76
2033.16	3077.02
2032.38	3050.82
2031.6	3169.12
2030.83	3245.64
2030.05	3094.24
2029.27	3116.2
2028.49	3125.31
2027.71	3131.2
2026.93	3137.1
2026.15	3126.96
2025.37	3257.91
2024.59	3084.24
2023.81	3099.76
2023.03	3326.8
2022.25	3210.89
2021.47	3069.38
2020.69	3177.79
2019.91	3055.55
2019.13	3272.81
2018.35	3157
2017.57	3204.5
2016.79	3216.77
2016	3309.04
2015.22	3241.3
2014.44	3112.79
2013.66	3093.09
2012.88	3226.89
2012.1	3290.31
2011.31	3168.28
2010.53	3225.29
2009.75	3221.56
2008.97	3208.24
2008.19	3239.66
2007.4	3194.4
2006.62	3248.16
2005.84	3228.47
2005.05	3240.7
2004.27	3243.35
2003.49	3236.43
2002.7	3066.76
2001.92	3305.55
2001.14	3305.01
2000.35	3189.63
1999.57	3233.75
1998.79	3421.34
1998	3321.94
1997.22	3397.89
1996.43	3324.02
1995.65	3377.64
1994.86	3329.29
1994.08	3335.11
1993.29	3347.29
1992.51	3318.08
1991.72	3279.32
1990.94	3364.72
1990.15	3316.42
1989.37	3347.7
1988.58	3382.14
1987.8	3391.12
1987.01	3346.03
1986.22	3399.53
1985.44	3497.53
1984.65	3493.77
1983.86	3397.84
1983.08	3460.83
1982.29	3396.71
1981.5	3446.97
1980.72	3567.1
1979.93	3414.07
1979.14	3391.27
1978.35	3466.91
1977.57	3529.81
1976.78	3322.93
1975.99	3408.06
1975.2	3502.67
1974.42	3467.19
1973.63	3387.33
1972.84	3491.41
1972.05	3570.09
1971.26	3363.45
1970.47	3508.68
1969.68	3321.13
1968.89	3498.01
1968.11	3532.28
1967.32	3500.01
1966.53	3575.44
1965.74	3606.51
1964.95	3444.45
1964.16	3595.81
1963.37	3471.78
1962.58	3496.52
1961.79	3575.03
1961	3571.27
1960.21	3535.89
1959.42	3623.84
1958.63	3458.83
1957.83	3622.63
1957.04	3410.27
1956.25	3555.06
1955.46	3560.79
1954.67	3585.47
1953.88	3625.93
1953.09	3571.64
1952.3	3751.02
1951.5	3570.45
1950.71	3632.99
1949.92	3585.04
1949.13	3675.95
1948.33	3687.95
1947.54	3636.87
1946.75	3604.73
1945.96	3541.06
1945.16	3540.47
1944.37	3539.88
1943.58	3627.54
1942.78	3655.29
1941.99	3585.37
1941.2	3704.47
1940.4	3653.46
1939.61	3583.58
1938.81	3608.17
1938.02	3733.48
1937.23	3742.3
1936.43	3612.65
1935.64	3741.05
1934.84	3583.14
1934.05	3673.75
1933.25	3710.88
1932.46	3584.49
1931.66	3769.37
1930.87	3894.47
1930.07	3654.97
1929.28	3783.19
1928.48	3625.48
1927.68	3637.44
1926.89	3687.08
1926.09	3881.15
1925.3	3820.85
1924.5	3864.16
1923.7	3722.28
1922.91	3715.38
1922.11	3746.14
1921.31	3751.78
1920.52	3857.8
1919.72	3894.78
1918.92	3818.88
1918.12	3790.03
1917.33	3670.29
1916.53	3729.22
1915.73	3778.73
1914.93	3915.94
1914.13	3755.54
1913.34	3823.81
1912.54	3738.63
1911.74	3806.88
1910.94	3774.94
1910.14	3818.13
1909.34	3895.71
1908.54	3945.12
1907.74	3803.7
1906.94	3900.01
1906.14	3965.03
1905.35	3864.32
1904.55	3726.13
1903.75	3763.01
1902.95	3678.01
1902.15	3902.35
1901.35	3817.35
1900.54	3860.44
1899.74	3994.08
1898.94	3840.42
1898.14	4014.59
1897.34	3711.16
1896.54	3900.9
1895.74	3953.29
1894.94	3924.55
1894.14	3917.66
1893.33	3842.16
1892.53	3956.88
1891.73	3978.04
1890.93	3983.61
1890.13	3933.08
1889.32	3898.14
1888.52	4022.11
1887.72	3878.15
1886.92	3905.53
1886.11	4097.94
1885.31	3985.17
1884.51	3981.39
1883.7	3977.61
1882.9	3948.94
1882.1	4007.39
1881.29	4003.61
1880.49	3974.94
1879.69	3989.83
1878.88	4091.76
1878.08	4059.99
1877.27	3969.17
1876.47	4127
1875.66	3855.98
1874.86	4184.64
1874.06	4069.01
1873.25	3953.42
1872.45	4014.86
1871.64	3902.42
1870.83	4150.09
1870.03	4068.7
1869.22	4102.15
1868.42	4079.75
1867.61	4106.98
1866.81	4103.19
1866	4127.31
1865.19	4225.83
1864.39	4222.02
1863.58	4097.34
1862.77	4217.51
1861.97	4018.51
1861.16	4178.92
1860.35	4144.15
1859.54	4180.61
1858.74	4340.91
1857.93	4182.3
1857.12	4305.41
1856.31	4279.93
1855.51	4109.03
1854.7	4148.56
1853.89	4144.77
1853.08	4193.55
1852.27	4202.13
1851.46	4331.27
1850.66	4151.26
1849.85	4342.17
1849.04	4180.76
1848.23	4266.57
1847.42	4259.67
1846.61	4354.7
1845.8	4301.47
1844.99	4257.52
1844.18	4269.16
1843.37	4228.32
1842.56	4357.21
1841.75	4260.83
1840.94	4195.34
1840.13	4336.51
1839.32	4286.44
1838.51	4375.13
1837.7	4405.22
1836.89	4324.35
1836.07	4471.54
1835.26	4310.57
1834.45	4408.42
1833.64	4484.68
1832.83	4557.84
1832.02	4538.6
1831.2	4346.96
1830.39	4512.45
1829.58	4388.59
1828.77	4514.01
1827.95	4473.25
1827.14	4417.13
1826.33	4542.48
1825.52	4483.29
1824.7	4568.62
1823.89	4580.15
1823.08	4625.48
1822.26	4547.88
1821.45	4673.08
1820.63	4758.31
1819.82	4656.15
1819.01	4796.62
1818.19	4863.36
1817.38	4742.82
1816.56	4732.82
1815.75	4787.26
1814.93	4602.36
1814.12	4764.17
1813.3	4646.81
1812.49	4802.43
1811.67	4648.31
1810.86	4601.55
1810.04	4692.72
1809.23	4685.8
1808.41	4617.6
1807.59	4616.83
1806.78	4677.31
1805.96	4615.27
1805.15	4433.83
1804.33	4531.05
1803.51	4625.18
1802.7	4523.4
1801.88	4461.44
1801.06	4494.34
1800.24	4554.76
1799.43	4502
1798.61	4568.52
1797.79	4601.38
1796.97	4622
1796.16	4602.88
1795.34	4461.54
1794.52	4558.55
1793.7	4548.62
1792.88	4636.43
1792.06	4443.26
1791.24	4570.74
1790.43	4621.87
1789.61	4709.61
1788.79	4489.09
1787.97	4558.51
1787.15	4557.74
1786.33	4724.73
1785.51	4726.98
1784.69	4662.15
1783.87	4743.67
1783.05	4556.94
1782.23	4528.74
1781.41	4646.81
1780.59	4551.58
1779.77	4556.91
1778.95	4741.92
1778.13	4534.05
1777.3	4673.33
1776.48	4651.24
1775.66	4686.97
1774.84	4740.95
1774.02	4627.58
1773.2	4541.63
1772.37	4793.3
1771.55	4795.53
1770.73	4642.7
1769.91	4590.23
1769.08	4540.83
1768.26	4670.73
1767.44	4742.86
1766.62	4787.63
1765.79	4601.54
1764.97	4682.76
1764.15	4642.49
1763.32	4744.92
1762.5	4786.62
1761.68	4673.52
1760.85	4733.41
1760.03	4723.51
1759.2	4740.91
1758.38	4749.21
1757.55	4715.05
1756.73	4856.74
1755.91	4758.92
1755.08	4749.03
1754.26	4866.4
1753.43	4683.8
1752.6	4716.32
1751.78	4809.41
1750.95	4969.09
1750.13	4713.93
1749.3	4685.89
1748.48	4872.74
1747.65	4835.6
1746.82	4771.25
1746	4722.04
1745.17	4845.24
1744.34	4738.58
1743.52	4816.39
1742.69	4706.75
1741.86	4941.7
1741.04	4762.57
1740.21	4903.77
1739.38	4767
1738.55	4714.84
1737.72	4786.52
1736.9	4858.18
1736.07	4793.96
1735.24	4844.46
1734.41	4738.01
1733.58	4701
1732.75	5004.9
1731.93	4765.76
1731.1	4879.56
1730.27	4830.48
1729.44	4880.92
1728.61	5003.67
1727.78	4692.41
1726.95	4851.31
1726.12	4910.75
1725.29	5030.4
1724.46	4906.07
1723.63	4772.74
1722.8	4759.89
1721.97	4876.48
1721.14	4971.96
1720.31	5079.45
1719.48	4901.08
1718.65	4864.15
1717.81	4812.19
1716.98	4874.52
1716.15	4903.76
1715.32	4914.95
1714.49	4980.24
1713.66	4841.16
1712.82	4978.55
1711.99	4992.73
1711.16	5054.95
1710.33	4982.02
1709.49	4774
1708.66	5106.41
1707.83	4985.49
1707	4990.64
1706.16	4944.79
1705.33	4967.95
1704.5	5045.09
1703.66	5065.22
1702.83	4836.48
1701.99	4979.56
1701.16	5011.69
1700.33	4899.95
1699.49	5108.86
1698.66	5021.11
1697.82	4987.31
1696.99	4926.57
1696.15	5102.4
1695.32	5149.43
1694.48	5067.73
1693.65	5099.79
1692.81	5024.12
1691.98	5196.79
1691.14	5070.27
1690.3	5233.9
1689.47	5262.92
1688.63	5112.53
1687.8	5108.67
1686.96	5233.33
1686.12	5423.69
1685.29	5249.48
1684.45	5460.68
1683.61	5232.76
1682.78	5318.47
1681.94	5222.02
1681.1	5233.07
1680.26	5327.69
1679.43	5261.13
1678.59	5445.22
1677.75	5333.92
1676.91	5321.08
1676.07	5487.18
1675.23	5334.18
1674.4	5249.8
1673.56	5374.09
1672.72	5554.96
1671.88	5384.18
1671.04	5445.82
1670.2	5495.53
1669.36	5411.21
1668.52	5434.11
1667.68	5516.54
1666.84	5548.34
1666	5648.58
1665.16	5519.67
1664.32	5685.33
1663.48	5577.28
1662.64	5787.49
1661.8	5780.55
1660.96	5937.14
1660.12	5930.18
1659.28	5828.12
1658.44	5883.59
1657.59	5725.12
1656.75	5896.43
1655.91	5812.27
1655.07	5840.97
1654.23	5976.55
1653.38	5779.61
1652.54	5849.85
1651.7	5976.46
1650.86	5913.13
1650.01	5977.38
1649.17	5964.5
1648.33	5939.76
1647.48	5923.92
1646.64	6071.13
1645.8	5735.17
1644.95	5814.2
1644.11	5833.95
1643.27	5939.6
1642.42	5959.32
1641.58	6014.57
1640.73	5841.81
1639.89	5894.1
1639.04	5851.66
1638.2	6007.5
1637.36	6015.35
1636.51	5845.7
1635.67	6066.54
1634.82	5932.42
1633.97	5644.6
1633.13	5921.53
1632.28	5870.27
1631.44	5724.45
1630.59	5962.82
1629.74	5893.85
1628.9	6149.82
1628.05	5986.34
1627.2	5949.88
1626.36	5928.2
1625.51	5879.96
1624.66	5840.59
1623.82	6040.24
1622.97	6021.51
1622.12	6052.92
1621.27	6090.23
1620.43	6050.85
1619.58	6117.63
1618.73	6084.16
1617.88	6115.54
1617.03	6076.18
1616.19	6092.82
1615.34	6056.43
1614.49	6296.9
1613.64	6207.48
1612.79	6135.76
1611.94	6261.29
1611.09	6242.56
1610.24	6262.09
1609.39	6237.48
1608.54	6230.53
1607.69	6294.17
1606.84	6372.49
1605.99	6300.83
1605.14	6549.63
1604.29	6613.17
1603.44	6679.63
1602.59	6613.84
1601.74	6794.85
1600.89	6846.55
1600.04	6942.29
1599.18	7093.78
1598.33	7083.76
1597.48	7273.33
1596.63	7415.88
1595.78	7622.94
1594.92	7697.91
1594.07	7960.57
1593.22	8050.12
1592.37	8479.77
1591.51	8900.47
1590.66	9036.71
1589.81	9328.22
1588.96	9663.59
1588.1	10256.6
1587.25	11124.8
1586.39	11737.9
1585.54	12877.9
1584.69	14111.2
1583.83	15739.1
1582.98	17624.1
1582.12	19836.2
1581.27	22588.7
1580.42	25287.6
1579.56	27687.3
1578.71	29837.6
1577.85	32095.4
1576.99	32914.2
1576.14	33308.9
1575.28	33537
1574.43	32657.7
1573.57	31895.5
1572.72	30511.5
1571.86	28567.3
1571	27155.2
1570.15	25364
1569.29	23418.8
1568.43	21348.8
1567.58	19609.1
1566.72	17601.7
1565.86	16149.2
1565.01	14396.7
1564.15	13228
1563.29	11981
1562.43	11229.9
1561.58	10444.1
1560.72	10086.8
1559.86	9377.23
1559	9168.82
1558.14	8686.75
1557.28	8679.43
1556.42	8491.63
1555.57	8210.76
1554.71	8124.95
1553.85	7896.61
1552.99	8005.8
1552.13	8007.33
1551.27	7918.71
1550.41	7873.74
1549.55	7613.65
1548.69	7478.64
1547.83	7291.36
1546.97	7144.83
1546.11	7114.55
1545.25	7026.19
1544.39	6972.71
1543.53	6913.44
1542.66	6836.77
1541.8	6704.97
1540.94	6590.64
1540.08	6673.65
1539.22	6660.9
1538.36	6564.03
1537.49	6417.9
1536.63	6474.79
1535.77	6456.28
1534.91	6478.35
1534.04	6413.48
1533.18	6131.31
1532.32	6425.76
1531.46	6343.55
1530.59	6423.55
1529.73	6277.66
1528.87	6282.37
1528	6379.7
1527.14	6265.73
1526.27	6415.12
1525.41	6295.4
1524.55	6060.01
1523.68	6215.14
1522.82	6312.39
1521.95	6256.37
1521.09	6226.39
1520.22	6332.25
1519.36	6250.25
1518.49	6523.63
1517.63	6487.85
1516.76	6247.01
1515.89	6185.3
1515.03	6394.99
1514.16	6388.12
1513.3	6213.85
1512.43	6126.21
1511.56	6315.57
1510.7	6207.75
1509.83	6099.96
1508.96	6257.51
1508.1	6374.64
1507.23	6235.17
1506.36	6409.91
1505.49	6267.6
1504.63	6240.59
1503.76	6308.65
1502.89	6249.96
1502.02	6205.68
1501.15	6239.16
1500.29	6416.56
1499.42	6432.73
1498.55	6328.02
1497.68	6525.45
1496.81	6394.88
1495.94	6428.29
1495.07	6208.62
1494.2	6377.19
1493.33	6295.59
1492.46	6383.61
1491.59	6425.61
1490.72	6312.45
1489.85	6429.14
1488.98	6453.88
1488.11	6490.09
1487.24	6517.68
1486.37	6430.44
1485.5	6463.77
1484.63	6743.89
1483.76	6590.65
1482.88	6469.02
1482.01	6499.46
1481.14	6547.08
1480.27	6677.85
1479.4	6579.22
1478.53	6592.42
1477.65	6840.6
1476.78	6587.27
1475.91	6706.45
1475.03	6762.58
1474.16	6787.18
1473.29	6700.11
1472.42	6653.15
1471.54	6652
1470.67	6622.23
1469.79	6718.37
1468.92	6471.17
1468.05	6521.54
1467.17	6477.51
1466.3	6590.77
1465.42	6538.17
1464.55	6399.83
1463.67	6473.03
1462.8	6703.36
1461.92	6456.51
1461.05	6423.97
1460.17	6528.52
1459.3	6401.76
1458.42	6494.86
1457.55	6556.53
1456.67	6421.26
1455.79	6414.44
1454.92	6427.6
1454.04	6609.04
1453.17	6619.3
1452.29	6489.84
1451.41	6634.11
1450.53	6661.47
1449.66	6609.01
1448.78	6693.35
1447.9	6618.12
1447.02	6725.22
1446.15	6473.43
1445.27	6517.87
1444.39	6459.8
1443.51	6595.31
1442.63	6486.02
1441.76	6638.55
1440.88	6648.78
1440	6602.11
1439.12	6643.63
1438.24	6776.12
1437.36	6391.14
1436.48	6665.76
1435.6	6570.81
1434.72	6609.45
1433.84	6815.7
1432.96	6669.65
1432.08	6770.74
1431.2	6786.6
1430.32	6745.68
1429.44	6815.47
1428.56	6780.23
1427.68	6747.84
1426.8	6735.32
1425.91	6546.93
1425.03	6852.1
1424.15	6706.29
1423.27	6812.86
1422.39	6729.48
1421.51	6663.12
1420.62	6772.48
1419.74	6774.13
1418.86	6804.12
1417.98	6641.5
1417.09	6818.74
1416.21	6619.38
1415.33	6946.59
1414.44	6750.1
1413.56	6887.58
1412.68	6925.99
1411.79	6656.06
1410.91	6966.01
1410.02	6806.44
1409.14	6940.97
1408.26	6965.21
1407.37	6865.07
1406.49	6844.1
1405.6	6896.59
1404.72	6850.19
1403.83	6916.79
1402.95	6876.05
1402.06	6976.5
1401.18	6856.72
1400.29	6931.73
1399.4	6938.99
1398.52	6946.25
1397.63	6792.71
1396.75	6893.07
1395.86	6962.37
1394.97	7023.18
1394.08	7069.88
1393.2	7161.66
1392.31	6999.79
1391.42	7026.75
1390.54	6969.18
1389.65	7235.54
1388.76	7076.58
1387.87	7103.5
1386.98	7057.23
1386.1	7207.98
1385.21	7080.1
1384.32	7143.58
1383.43	6979.17
1382.54	7025.77
1381.65	7055.48
1380.76	6930.54
1379.87	7019.29
1378.98	7009.64
1378.09	7002.79
1377.21	7060.58
1376.32	6975.07
1375.43	7086.2
1374.53	7014.76
1373.64	7094.96
1372.75	7031.97
1371.86	7047.58
1370.97	7046.35
1370.08	7011.46
1369.19	7001.82
1368.3	7067.91
1367.41	6847.95
1366.52	6986.94
1365.62	6994.13
1364.73	7141.46
1363.84	7008.51
1362.95	7265.05
1362.05	7118.12
1361.16	7032.85
1360.27	7222.05
1359.38	7066.79
1358.48	7177.54
1357.59	7114.71
1356.7	7043.51
1355.8	7056.27
1354.91	7080.21
1354.02	7112.54
1353.12	7346.2
1352.23	7152
1351.33	7052.91
1350.44	7079.62
1349.54	7028.09
1348.65	7278.32
1347.75	7103.85
1346.86	7116.58
1345.96	6933.82
1345.07	7007.99
1344.17	7112.85
1343.28	7125.56
1342.38	7035.02
1341.49	7162.13
1340.59	7001.87
1339.69	6914.19
1338.8	7113.76
1337.9	7062.33
1337	7094.55
1336.11	7062.65
1335.21	7064.2
1334.31	7023.96
1333.41	7075.66
1332.52	7102.28
1331.62	7123.31
1330.72	7172.18
1329.82	7042.88
1328.92	6988.76
1328.03	7087.72
1327.13	7033.62
1326.23	7001.79
1325.33	7050.63
1324.43	7082.76
1323.53	7189.96
1322.63	6888.47
1321.73	7181.88
1320.83	7116.71
1319.93	7093.24
1319.03	7089.22
1318.13	6985.21
1317.23	7117.28
1316.33	7099.38
1315.43	7078.71
1314.53	7052.49
1313.63	6984.65
1312.73	7047.24
1311.83	7143.1
1310.93	7191.77
1310.03	7101.78
1309.12	7142.12
1308.22	7046.62
1307.32	7159.02
1306.42	7188.25
1305.52	7256.25
1304.61	7266.06
1303.71	7378.35
1302.81	7338.28
1301.9	7115.5
1301	7454.74
1300.1	7497.72
1299.19	7573.89
1298.29	7431.46
1297.39	7402.49
1296.48	7475.87
1295.58	7477.33
1294.68	7379.25
1293.77	7424.95
1292.87	7296.51
1291.96	7480.37
1291.06	7305
1290.15	7242.95
1289.25	7313.49
1288.34	7411.61
1287.44	7299.88
1286.53	7058.44
1285.62	7178.64
1284.72	7166.34
1283.81	7123.7
1282.91	7224.51
1282	7322.53
1281.09	7183.37
1280.19	7047.01
1279.28	7205.66
1278.37	7083.13
1277.46	7114.95
1276.56	7132.99
1275.65	7239.16
1274.74	7262.68
1273.83	7187.06
1272.93	7328.96
1272.02	7429.52
1271.11	7384.18
1270.2	7751.62
1269.29	7695.23
1268.38	7671.87
1267.47	7651.27
1266.57	7850.66
1265.66	7714.57
1264.75	8095.3
1263.84	7904.24
1262.93	7955.06
1262.02	7857.5
1261.11	7850.63
1260.2	8145.86
1259.29	7938.48
1258.38	7992
1257.47	7927.46
1256.55	8008.4
1255.64	7814.91
1254.73	7799.82
1253.82	7910.91
1252.91	7717.54
1252	7795.7
1251.09	7492.76
1250.17	7688.8
1249.26	7454.49
1248.35	7617.59
1247.44	7575.15
1246.52	7477.95
1245.61	7421.86
1244.7	7469.84
1243.78	7307
1242.87	7478.16
1241.96	7405.69
1241.04	7412.59
1240.13	7285.44
1239.22	7300.57
1238.3	7230.91
1237.39	7380.03
1236.47	7548.23
1235.56	7380.16
1234.64	7275.01
1233.73	7208.15
1232.81	7316.16
1231.9	7380.43
1230.98	7373.67
1230.07	7391.48
1229.15	7319.2
1228.24	7424.36
1227.32	7363.01
1226.4	7438.12
1225.49	7275.85
1224.57	7312.75
1223.65	7415.09
1222.74	7337.44
1221.82	7270.72
1220.9	7449.33
1219.99	7426.22
1219.07	7539.35
1218.15	7380.01
1217.23	7405.95
1216.31	7352.9
1215.4	7332.54
1214.48	7491.86
1213.56	7515.04
1212.64	7470.17
1211.72	7585.85
1210.8	7530.1
1209.88	7392.78
1208.96	7584.56
1208.05	7441.83
1207.13	7543.82
1206.21	7441.92
1205.29	7481.37
1204.37	7379.52
1203.45	7554.79
1202.53	7523.58
1201.6	7508.68
1200.68	7444.9
1199.76	7579.32
1198.84	7664.84
1197.92	7647.2
1197	7594.3
1196.08	7812.69
1195.16	7895.39
1194.23	7790.95
1193.31	7898.02
1192.39	8105.36
1191.47	8315.33
1190.54	8381.61
1189.62	8878.66
1188.7	9288.84
1187.78	9633.88
1186.85	10103.4
1185.93	10802.8
1185.01	10985
1184.08	11778.7
1183.16	12436.9
1182.23	12624.1
1181.31	12700.3
1180.39	12584.5
1179.46	12428.1
1178.54	12020.4
1177.61	11702
1176.69	11254
1175.76	10687.2
1174.84	10096.4
1173.91	9216.67
1172.98	9120.51
1172.06	8570.74
1171.13	8469.33
1170.21	8197.89
1169.28	8029.11
1168.35	7927.85
1167.43	7810.44
1166.5	7857.61
1165.57	7918.25
1164.65	7755.06
1163.72	7750.99
1162.79	7830.48
1161.86	7702.43
1160.94	7714.54
1160.01	7621.57
1159.08	7859.95
1158.15	7995.91
1157.22	7824.86
1156.29	7834.24
1155.37	7800.55
1154.44	7963.33
1153.51	7937.7
1152.58	7879.8
1151.65	7999.45
1150.72	7785.57
1149.79	8093.41
1148.86	7863.46
1147.93	8028.72
1147	8072.98
1146.07	8192.46
1145.14	8231.3
1144.21	8205.67
1143.28	8333.12
1142.35	8439.04
1141.41	8566.4
1140.48	8564.88
1139.55	8515.06
1138.62	8655.75
1137.69	8721.29
1136.76	8794.84
1135.82	8970.27
1134.89	8920.42
1133.96	9144.01
1133.03	9338.05
1132.09	9355.15
1131.16	9533.01
1130.23	9442.91
1129.29	9489.45
1128.36	9696.64
1127.43	9984.08
1126.49	9835.07
1125.56	9999.26
1124.62	10144.7
1123.69	10332.8
1122.75	10395.2
1121.82	10698.2
1120.89	10733.8
1119.95	10854.9
1119.01	11074.8
1118.08	11150.3
1117.14	11316.7
1116.21	11445.6
1115.27	11785.5
1114.34	11754
1113.4	11917.5
1112.46	11939.4
1111.53	12329.7
1110.59	12575.7
1109.65	12682.9
1108.72	12827.3
1107.78	12939.7
1106.84	13185.5
1105.9	13655.1
1104.97	13956.6
1104.03	13991.4
1103.09	14287.4
1102.15	15001.7
1101.21	15230.8
1100.28	15760.8
1099.34	16253.3
1098.4	16681.8
1097.46	16995.6
1096.52	17288.1
1095.58	17676.2
1094.64	17681
1093.7	17701.8
1092.76	18095
1091.82	17988.1
1090.88	18463.5
1089.94	19074.3
1089	20173.9
1088.06	21725
1087.12	23974.2
1086.18	27269.4
1085.24	31423.9
1084.29	35670
1083.35	41234
1082.41	46445.7
1081.47	51185.8
1080.53	55098.8
1079.58	57811.2
1078.64	59559.7
1077.7	60198.9
1076.76	59138.1
1075.81	57942.4
1074.87	55082.4
1073.93	52011.3
1072.98	47656.2
1072.04	43596.7
1071.1	38804.9
1070.15	34284.9
1069.21	29726.8
1068.26	25660.1
1067.32	22436.7
1066.38	20000.5
1065.43	17980.5
1064.49	16210
1063.54	14905.7
1062.6	14093.7
1061.65	13308.5
1060.7	12568.5
1059.76	12265
1058.81	11721
1057.87	11277.6
1056.92	11265
1055.97	10827.2
1055.03	10632.5
1054.08	10379.7
1053.13	10111.2
1052.19	9869.23
1051.24	9759.27
1050.29	9783.91
1049.34	9225.52
1048.4	9379.49
1047.45	9238.05
1046.5	9104.56
1045.55	9008.03
1044.6	9093.4
1043.65	9031.16
1042.71	8781.88
1041.76	8959.44
1040.81	8676.02
1039.86	8548.06
1038.91	8630.79
1037.96	8518.68
1037.01	8453.99
1036.06	8555.11
1035.11	8537.79
1034.16	8620.44
1033.21	8421.64
1032.26	8464.84
1031.31	8526.43
1030.36	8564.33
1029.4	8386.71
1028.45	8201.26
1027.5	8220.82
1026.55	8492.53
1025.6	8351.82
1024.65	8174.39
1023.69	8154.55
1022.74	8318.46
1021.79	8293.35
1020.84	8304.99
1019.88	8214.3
1018.93	8375.46
1017.98	8376.58
1017.02	8616.32
1016.07	8714.4
1015.12	9048.35
1014.16	9243.28
1013.21	9254.73
1012.25	9129.94
1011.3	9094.26
1010.34	8917.16
1009.39	8771.56
1008.43	8610.29
1007.48	8472.64
1006.52	8298.41
1005.57	8435.59
1004.61	8243.11
1003.66	8252.1
1002.7	8193.08
1001.74	8189
1000.79	8213.67
999.832	8235.73
998.875	8210.73
997.919	8287.64
996.962	8103.29
996.004	8169.75
995.047	8108.22
994.089	8166.82
993.132	8144.47
992.174	8150.84
991.216	8008.46
990.258	8158.35
989.299	8081.24
988.341	8009.37
987.382	8213.93
986.423	7889.18
985.464	8203.17
984.505	8060.96
983.545	8208.04
982.586	7865.28
981.626	7957.64
980.666	8143.72
979.706	8246.41
978.746	8146
977.785	8144.54
976.824	8187.32
975.864	8063.55
974.903	7984.06
973.941	8058.06
972.98	8085.22
972.019	8328.17
971.057	7999.12
970.095	8210.82
969.133	8024.83
968.171	8166.29
967.209	8125.86
966.246	8075.05
965.283	8517.66
964.32	8298.03
963.357	8512
962.394	8092.61
961.431	8246.85
960.467	8196.07
959.503	8251.67
958.54	8203.5
957.575	8422.44
956.611	8278.33
955.647	8396.08
954.682	8259.8
953.717	8146.89
952.752	8168.74
951.787	8415.94
950.822	8308.24
949.857	8392.2
948.891	8320.79
947.925	8327.05
946.959	8286.73
945.993	8321.47
945.026	8325.14
944.06	8416.76
943.093	8314.39
942.126	8380.12
941.159	8474.26
940.192	8258.2
939.225	8342
938.257	8394.75
937.289	8300.24
936.322	8218.68
935.353	8320.49
934.385	8151.17
933.417	8221.98
932.448	8432.14
931.479	8128.7
930.51	8380.08
929.541	8303.76
928.572	8248.1
927.602	8241.46
926.633	8428.18
925.663	8166.31
924.693	8167.42
923.723	8168.52
922.752	8308.75
921.782	8165.58
920.811	8153.8
919.84	8139.46
918.869	8150.86
917.898	8267.8
916.926	8153.07
915.955	8161.89
914.983	8134.69
914.011	8403.3
913.039	8322.06
912.067	8004.3
911.094	8511.87
910.122	8171.05
909.149	8074.49
908.176	8219.49
907.203	8243.69
906.229	8160.01
905.256	8338.3
904.282	8246.93
903.308	8445.67
902.334	8225.98
901.36	8245.03
900.386	8500.11
899.411	8167.66
898.436	8202.09
897.461	8316
896.486	8309.37
895.511	8333.5
894.536	8332
893.56	8271.56
892.584	8318.74
891.608	8378.71
890.632	8477.08
889.656	8416.65
888.679	8361.37
887.702	8134.61
886.726	8381.38
885.748	8290.31
884.771	8304.16
883.794	8410.08
882.816	8119.58
881.839	8340.56
880.861	8548.68
879.882	8462.79
878.904	8382.04
877.926	8171.01
876.947	8223.17
875.968	8288.09
874.989	8352.99
874.01	8402.54
873.031	8671.61
872.051	8276.99
871.072	8423.5
870.092	8462.79
869.112	8448.51
868.131	8360.26
867.151	8534.7
866.17	8566.29
865.19	8350.62
864.209	8412.83
863.228	8487.75
862.246	8562.64
861.265	8576.37
860.283	8493.32
859.301	8405.21
858.319	8533.52
857.337	8608.34
856.355	8540.61
855.372	8648.47
854.389	8672.34
853.407	8563.94
852.424	8592.91
851.44	8626.95
850.457	8615.21
849.473	8659.4
848.489	8561.27
847.505	8564.8
846.521	8723.28
845.537	8584.55
844.552	8712.5
843.568	8756.62
842.583	8590.03
841.598	8621.47
840.613	8762
839.627	8912.64
838.642	8781.65
837.656	8797.81
836.67	8862.14
835.684	8774.34
834.698	8960.32
833.711	8890.26
832.724	8865.85
831.738	9150.51
830.751	9052.59
829.763	9038.29
828.776	9305.04
827.789	9176.77
826.801	9149.79
825.813	9034.25
824.825	9105.99
823.837	9053.74
822.848	9092.56
821.859	9060.57
820.871	9205.56
819.882	9102.78
818.892	9202.22
817.903	9122.21
816.914	9130.66
815.924	9113.84
814.934	9084.4
813.944	9148.4
812.954	9280.55
811.963	9097.12
810.973	8944.04
809.982	9045.87
808.991	8955.93
808	8765.12
807.008	8758.48
806.017	9130.06
805.025	8886.39
804.033	8884.77
803.041	8797.47
802.049	8969.73
801.057	8895.04
800.064	8827.93
799.071	8710.49
798.078	8653.51
797.085	8858.36
796.092	8559.76
795.099	8789.71
794.105	8823.33
793.111	8844.36
792.117	8925.75
791.123	8843.66
790.128	8889.81
789.134	8787.65
788.139	8803.64
787.144	8972.9
786.149	8835.61
785.154	8881.72
784.158	9020.74
783.162	8870.95
782.167	8919.54
781.171	8930.47
780.174	8886.18
779.178	8992.45
778.181	8832.77
777.185	8768.45
776.188	8892.24
775.191	8910.68
774.193	8976.73
773.196	8914.95
772.198	8880.74
771.2	8949.28
770.202	8902.56
769.204	8743.15
768.206	9062.07
767.207	9095.47
766.208	8956.14
765.209	9077.13
764.21	8920.34
763.211	8936.22
762.212	9029.64
761.212	9058
760.212	9156.37
759.212	9117.2
758.212	9018.05
757.211	9216.33
756.211	9486.99
755.21	9612.66
754.209	9875.65
753.208	10580.5
752.207	10978.1
751.205	11829.8
750.203	12838.5
749.202	14118.7
748.2	15081.7
747.197	16548.1
746.195	17844.5
745.192	18928.4
744.19	20440.7
743.187	21055.2
742.183	20999
741.18	20407.1
740.177	19675.9
739.173	18349.7
738.169	16700.2
737.165	15287.9
736.161	13821.3
735.156	12352.8
734.152	11447.2
733.147	10736
732.142	10050
731.137	9869.04
730.131	9275.4
729.126	9363.21
728.12	9473.36
727.114	9242.98
726.108	9186.62
725.102	9319.09
724.095	9312.42
723.089	9236.21
722.082	9142.65
721.075	9193.11
720.068	9203.84
719.06	9204.63
718.053	9629.72
717.045	9667.65
716.037	9581.55
715.029	9589.72
714.021	9838.38
713.012	9754.77
712.004	9933.92
710.995	9718.99
709.986	9994.7
708.977	10052.3
707.967	9867.2
706.958	9902.54
705.948	9843.78
704.938	9755.34
703.928	9914.42
702.917	9573.6
701.907	9532.26
700.896	9461.26
699.885	9484.25
698.874	9415.75
697.863	9342.34
696.851	9278.83
695.84	9272.19
694.828	9218.6
693.816	9342.9
692.804	9358.47
691.791	9319.71
690.779	9132.83
689.766	9126.22
688.753	9107.26
687.74	9327.68
686.727	9017.57
685.713	9235.46
684.7	9364.47
683.686	9091.51
682.672	9269.82
681.658	9186.77
680.643	9148.12
679.629	9131.66
678.614	9033.9
677.599	8941.11
676.584	9363.04
675.568	9028.92
674.553	9106.04
673.537	8759.79
672.521	9097.77
671.505	9241.27
670.489	9212.51
669.472	9033.73
668.456	9056.66
667.439	8954.2
666.422	9114.79
665.405	8887.01
664.387	9045.09
663.37	9205.58
662.352	9041.77
661.334	9113.78
660.316	9109.65
659.297	9046.6
658.279	8995.85
657.26	9293.59
656.241	9235.45
655.222	9162.61
654.203	9111.87
653.183	9137.17
652.164	8971.21
651.144	9153.42
650.124	8918.89
649.104	9061.83
648.083	8910.71
647.063	9114.84
646.042	9007.85
645.021	9155.56
644	9193.04
642.978	9201.14
641.957	9334.05
640.935	9263.82
639.913	9421.13
638.891	9228.61
637.869	9341.85
636.846	9538.18
635.824	10108.5
634.801	11064.7
633.778	12416.5
632.755	14234.4
631.731	15130.8
630.708	15699.5
629.684	15454.8
628.66	14206.8
627.636	12532.1
626.611	11255.9
625.587	10687.7
624.562	10144.1
623.537	9837.33
622.512	9491.65
621.487	9487.46
620.461	9483.27
619.436	9371.84
618.41	9445.66
617.384	9324.53
616.357	9327.68
615.331	9384.41
614.304	9450.87
613.277	9419.91
612.25	9057.9
611.223	9345.85
610.196	9348.99
609.168	9349.7
608.141	9389.33
607.113	9365.71
606.084	9337.23
605.056	9274.73
604.028	9153.91
602.999	9334.49
601.97	9497.99
600.941	9389.35
599.912	9390.04
598.882	9354.31
597.852	9340.44
596.823	9324.15
595.793	9387.96
594.762	9493
593.732	9323.84
592.701	9084.39
591.671	9434.38
590.64	9207.13
589.608	9253.91
588.577	9443.69
587.545	9197.17
586.514	9459.59
585.482	9271.3
584.45	9228.41
583.417	9391.38
582.385	9205.62
581.352	9443.58
580.319	9407.95
579.286	9343.29
578.253	9460.12
577.219	9451.11
576.186	9379.22
575.152	9476.63
574.118	9474.88
573.083	9552.89
572.049	9662.3
571.014	9769.24
569.98	9736.03
568.945	10050.6
567.909	9891.81
566.874	10003.5
565.838	10204.4
564.803	10144.6
563.767	10246.5
562.73	10314.5
561.694	10259.6
560.658	10219.1
559.621	10272.6
558.584	10044.1
557.547	10153.1
556.509	10440.5
555.472	10166.2
554.434	10328.2
553.396	10160.1
552.358	10066.7
551.32	10202
550.282	10402.4
549.243	10268.1
548.204	10372
547.165	10271.5
546.126	10339.3
545.086	10080.1
544.047	10128.7
543.007	9864.75
541.967	10124.9
540.927	9918.77
539.886	9878.49
538.846	9967.95
537.805	9687.46
536.764	9791.33
535.723	10048.8
534.681	9902.93
533.64	9617.87
532.598	9935.26
531.556	9811.04
530.514	9862
529.472	10008.9
528.429	9903.9
527.387	9957.21
526.344	9861.87
525.301	9886.4
524.257	10052.3
523.214	9889.92
522.17	10022.2
521.126	9922.17
520.082	9834.12
519.038	9825.11
517.993	9875.95
516.949	9898.04
515.904	9805.28
514.859	9956.57
513.814	9751.41
512.768	9720.9
511.723	9644.98
510.677	9612.11
509.631	9772.84
508.585	9923.96
507.538	9824.16
506.492	9982.38
505.445	9698.71
504.398	10007.3
503.351	9616.31
502.303	9621.69
501.256	9839.45
500.208	9606.18
499.16	9680.73
498.112	9979.46
497.063	9634.2
496.015	9668.17
494.966	9621.08
493.917	9790.89
492.868	9781.92
491.819	9649.06
490.769	9606.77
489.72	9697.87
488.67	9634.15
487.62	9525.23
486.569	9594.86
485.519	9607.35
484.468	9615.08
483.417	9553.82
482.366	9697.12
481.315	9569.28
480.263	9667.36
479.212	9746.38
478.16	9723.17
477.108	9621.56
476.055	9615.01
475.003	9385.18
473.95	9587.68
472.897	9509.91
471.844	9539
470.791	9492.12
469.738	9594.77
468.684	9692.64
467.63	9539
466.576	9530.11
465.522	9751.24
464.468	9592.94
463.413	9370.69
462.358	9650.99
461.303	9589.94
460.248	9607.11
459.193	9780.6
458.137	9714.83
457.081	9729.6
456.025	9666.23
454.969	9908.22
453.913	9958.44
452.856	10046.5
451.799	9978.38
450.742	10184.7
449.685	10225.3
448.628	10393.6
447.57	10171.9
446.512	10292.9
445.454	10510.7
444.396	10395.3
443.338	10471.3
442.279	10726.8
441.221	10476.9
440.162	10585.9
439.102	10496.6
438.043	10284.6
436.983	10381.7
435.924	10665.2
434.864	10524.1
433.804	10677.8
432.743	10631
431.683	10433.3
430.622	10754.3
429.561	10412.9
428.5	10498.2
427.439	10646.9
426.377	10383.5
425.315	10541.7
424.253	10410.3
423.191	10330.6
422.129	10491.1
421.066	10404.4
420.004	10400.1
418.941	10673.4
417.878	10838.3
416.814	10641.1
415.751	10627.4
414.687	10966.2
413.623	10947.7
412.559	10788.2
411.495	11190.2
410.43	11127.1
409.365	11211.9
408.301	11383.5
407.235	10956.5
406.17	11149.3
405.105	11313.7
404.039	11271.8
402.973	11157.1
401.907	10972.1
400.84	11056.8
399.774	10991.4
398.707	10818.2
397.64	10680.3
396.573	10732.2
395.506	10498.3
394.438	10381.6
393.371	10414.7
392.303	10263
391.235	10277.4
390.166	10312.9
389.098	10140.2
388.029	10269.3
386.96	10099
385.891	10076
384.822	10207.4
383.752	10018.5
382.682	10089.1
381.613	9914.27
380.542	10015.2
379.472	10067
378.402	9983.42
377.331	9997.89
376.26	9930.65
375.189	9984.8
374.117	9947.92
373.046	9934.39
371.974	9941.86
370.902	10107.9
369.83	9968.44
368.758	9933.92
367.685	9994.99
366.613	9846.3
365.54	9865.42
364.466	9933.45
363.393	9924.6
362.32	9857.53
361.246	10032.6
360.172	10005.1
359.098	10003.3
358.023	9812.89
356.949	9857.57
355.874	9834.79
354.799	9802.7
353.724	9845.04
352.649	9975.7
351.573	9878.53
350.497	9897.58
349.421	9953.81
348.345	10058.8
347.269	9989.55
346.192	9880.85
345.115	10199.4
344.038	10387.8
342.961	10186.3
341.884	10207.6
340.806	10184.8
339.728	10236.2
338.65	10470.8
337.572	10529.1
336.494	10587.4
335.415	10689.7
334.336	10759.6
333.257	10611.6
332.178	10787.9
331.099	10725.7
330.019	10774.6
328.939	10906.9
327.859	11027.5
326.779	11104.1
325.699	10988.6
324.618	11081.4
323.537	11301.4
322.456	10963.9
321.375	11387.3
320.293	11533.1
319.212	11681.1
318.13	11618.9
317.048	11579.7
315.966	11734.6
314.883	11850.2
313.8	11732.5
312.718	11601
311.634	11686.5
310.551	11790.5
309.468	11811.3
308.384	11626.8
307.3	11829.9
306.216	11564.8
305.132	11553.4
304.047	11627.3
302.962	11662
301.877	11516.9
300.792	11484.8
299.707	11314.5
298.621	11432.1
297.536	11321.7
296.45	11349.5
295.364	11368.1
294.277	11471.8
293.191	11248.7
292.104	11214.4
291.017	11327.3
289.93	11302.1
288.842	11348.3
287.755	11084.1
286.667	11468.1
285.579	11610.7
284.491	11231.7
283.402	11395
282.314	11445.7
281.225	11636.4
280.136	11563
279.047	11829.3
277.957	11749.1
276.867	11744.6
275.778	11733.2
274.688	11806.6
273.597	11825
272.507	11909.9
271.416	11926
270.325	12022.3
269.234	11926.1
268.143	12024.6
267.051	12109.4
265.96	12006.3
264.868	12043
263.776	12008.7
262.683	12084.2
261.591	12235.2
260.498	12079.6
259.405	12045.3
258.312	12095.6
257.218	11995
256.125	12004.2
255.031	11967.6
253.937	12013.3
252.843	11743.8
251.748	11931.1
250.654	11725.6
249.559	11593.2
248.464	11700.6
247.369	11378.8
246.273	11394.9
245.178	10982.1
244.082	11025.6
242.986	10859.3
241.889	10813.9
240.793	10766.2
239.696	10714.1
238.599	10844.2
237.502	10495.8
236.405	10530.3
235.307	10592
234.21	10606
233.112	10658.6
232.014	10520
230.915	10495.2
229.817	10709.4
228.718	10479.9
227.619	10639.4
226.52	10696.5
225.42	10696.8
224.321	10617.4
223.221	10560.9
222.121	10856.6
221.021	10959
219.92	10711.6
218.82	10764.1
217.719	10896
216.618	11034.7
215.516	10994
214.415	11178.1
213.313	11030.7
212.211	11169.3
211.109	11160.4
210.007	11337.4
208.904	11047.3
207.802	11308.2
206.699	11249.3
205.595	11204.1
204.492	11367.4
203.389	11403.8
202.285	11437.8
201.181	11546.6
200.077	11472
198.972	11573.9
197.867	11653.2
196.763	11598.9
195.658	11685
194.552	11773.2
193.447	11789.1
192.341	11897.6
191.235	11888.6
190.129	11902.1
189.023	12132.6
187.916	12067.1
186.81	12155.1
185.703	12148.3
184.595	12297.3
183.488	12389.7
182.381	12470.9
181.273	12574.6
180.165	12709.8
179.057	12779.6
177.948	12786.2
176.839	13043.1
175.731	13178.1
174.622	13380.7
173.512	13626.1
172.403	13506.3
171.293	13844
170.183	14001.2
169.073	13940
167.963	14025.2
166.852	13975.2
165.742	14118.9
164.631	13870.9
163.519	13791.7
162.408	13739.6
161.296	13791
160.185	13741.1
159.073	13507
157.96	13598.8
156.848	13391.7
155.735	13674.5
154.622	13793.2
153.509	13875.9
152.396	13884.5
151.282	14333.1
150.169	14485.3
149.055	14487
147.941	14580.7
146.826	14883
145.712	15113.5
144.597	15299
143.482	15417.1
142.367	15826.7
141.251	15987.3
140.136	16228.5
139.02	16774.3
137.904	16475.4
136.788	16853
135.671	17286.4
134.554	17316.7
133.437	17604.3
132.32	17918.8
131.203	18165.9
130.085	18632.2
128.968	18474.3
127.85	19179.7
126.732	19372.8
125.613	19628.4
124.494	19899.5
123.376	20436.4
122.257	20555.4
121.137	21074.1
120.018	21715.5
118.898	22012.8
117.778	22593.4
116.658	23129.2
115.538	23504.2
114.417	23921.3
113.296	24101.9
112.176	24605.8
111.054	25022.5
109.933	25060.1
108.811	25195.7
107.689	25440.5
106.567	25056.8
105.445	24951.8
104.323	24815.6
103.2	24701.7
102.077	24665.8
100.954	24204.8
