3201.2	197.927
3200.6	134.759
3200.01	130.528
3199.41	117.878
3198.82	151.535
3198.23	172.555
3197.63	155.697
3197.04	168.296
3196.44	168.271
3195.85	197.688
3195.25	147.192
3194.66	155.58
3194.07	155.556
3193.47	159.736
3192.88	142.9
3192.28	155.486
3191.69	134.454
3191.09	176.444
3190.5	176.417
3189.9	167.991
3189.31	180.563
3188.71	155.345
3188.11	163.717
3187.52	151.101
3186.92	167.864
3186.33	197.21
3185.73	125.86
3185.14	151.009
3184.54	138.404
3183.94	134.19
3183.35	184.483
3182.75	176.071
3182.15	138.32
3181.56	150.872
3180.96	184.371
3180.36	150.827
3179.77	167.56
3179.17	167.534
3178.57	154.946
3177.98	150.735
3177.38	167.458
3176.78	179.99
3176.18	196.704
3175.59	154.829
3174.99	167.357
3174.39	184.065
3173.79	171.489
3173.2	158.917
3172.6	192.344
3172	163.05
3171.4	209.006
3170.8	167.18
3170.21	167.154
3169.61	192.199
3169.01	154.571
3168.41	142.017
3167.81	187.935
3167.21	179.555
3166.61	183.703
3166.02	162.803
3165.42	200.342
3164.82	233.697
3164.22	183.592
3163.62	208.595
3163.02	179.365
3162.42	170.996
3161.82	200.16
3161.22	208.469
3160.62	225.112
3160.02	204.238
3159.42	191.704
3158.82	237.511
3158.22	187.48
3157.62	229.107
3157.02	137.444
3156.42	204.052
3155.82	208.185
3155.22	241.458
3154.62	183.147
3154.02	262.194
3153.42	183.092
3152.82	195.545
3152.22	249.595
3151.62	220.442
3151.01	182.981
3150.41	191.269
3149.81	191.24
3149.21	216.151
3148.61	199.494
3148.01	220.241
3147.41	224.363
3146.8	224.329
3146.2	240.909
3145.6	186.884
3145	236.684
3144.4	207.586
3143.79	249.065
3143.19	257.328
3142.59	207.491
3141.99	240.653
3141.38	219.874
3140.78	240.58
3140.18	215.66
3139.58	244.654
3138.97	269.493
3138.37	273.598
3137.77	232.108
3137.16	223.785
3136.56	223.751
3135.96	207.145
3135.35	202.972
3134.75	223.649
3134.14	256.743
3133.54	169.756
3132.94	244.246
3132.33	235.931
3131.73	190.371
3131.12	223.445
3130.52	235.823
3129.92	198.558
3129.31	206.8
3128.71	231.58
3128.1	165.389
3127.5	202.571
3126.89	206.674
3126.29	202.51
3125.68	202.479
3125.08	169.395
3124.47	243.727
3123.87	214.778
3123.26	218.875
3122.66	231.229
3122.05	227.065
3121.45	194.008
3120.84	255.887
3120.23	160.936
3119.63	193.92
3119.02	210.391
3118.42	214.484
3117.81	202.079
3117.2	206.172
3116.6	243.246
3115.99	197.865
3115.38	259.658
3114.78	201.926
3114.17	197.775
3113.56	222.463
3112.96	210.072
3112.35	251.224
3111.74	222.361
3111.14	263.499
3110.53	246.993
3109.92	246.955
3109.31	271.61
3108.71	259.224
3108.1	238.615
3107.49	259.145
3106.88	254.993
3106.27	230.281
3105.67	234.358
3105.06	234.322
3104.45	283.61
3103.84	267.128
3103.23	267.088
3102.62	275.264
3102.02	242.36
3101.41	246.43
3100.8	266.925
3100.19	275.096
3099.58	221.686
3098.97	291.431
3098.36	295.491
3097.75	307.756
3097.14	262.578
3096.53	266.641
3095.93	250.194
3095.32	311.67
3094.71	282.92
3094.1	286.977
3093.49	323.824
3092.88	274.594
3092.27	270.454
3091.66	294.996
3091.05	331.82
3090.44	278.523
3089.82	274.385
3089.21	294.816
3088.6	298.866
3087.99	335.661
3087.38	311.053
3086.77	298.729
3086.16	343.691
3085.55	315.002
3084.94	331.315
3084.33	327.175
3083.72	290.323
3083.1	343.429
3082.49	367.903
3081.88	355.586
3081.27	347.358
3080.66	343.219
3080.04	375.85
3079.43	347.199
3078.82	375.735
3078.21	306.259
3077.6	436.863
3076.98	379.645
3076.37	379.587
3075.76	350.963
3075.15	318.267
3074.53	367.175
3073.92	367.119
3073.31	362.984
3072.69	387.396
3072.08	395.491
3071.47	411.737
3070.85	366.839
3070.24	374.933
3069.63	505.268
3069.01	460.376
3068.4	423.644
3067.79	464.308
3067.17	480.526
3066.56	496.739
3065.94	545.516
3065.33	508.799
3064.72	549.419
3064.1	557.473
3063.49	663.17
3062.87	638.661
3062.26	671.102
3061.64	695.399
3061.03	760.35
3060.41	764.299
3059.8	780.442
3059.18	768.13
3058.57	849.284
3057.95	812.588
3057.34	926.209
3056.72	938.252
3056.11	994.964
3055.49	978.57
3054.87	994.66
3054.26	949.857
3053.64	990.298
3053.03	949.566
3052.41	969.708
3051.79	884.369
3051.18	977.524
3050.56	900.32
3049.94	823.14
3049.33	831.123
3048.71	741.816
3048.09	761.967
3047.48	692.96
3046.86	705.01
3046.24	725.158
3045.63	729.097
3045.01	724.936
3044.39	765.318
3043.77	676.13
3043.16	582.921
3042.54	692.113
3041.92	594.883
3041.3	578.608
3040.69	627.066
3040.07	602.7
3039.45	574.298
3038.83	562.079
3038.21	529.648
3037.59	537.652
3036.98	525.444
3036.36	505.157
3035.74	488.917
3035.12	440.362
3034.5	452.413
3033.88	399.84
3033.26	387.664
3032.64	440.093
3032.02	395.619
3031.4	439.958
3030.79	411.641
3030.17	443.859
3029.55	415.549
3028.93	383.215
3028.31	383.156
3027.69	362.935
3027.07	338.687
3026.45	427.326
3025.83	395.014
3025.21	342.562
3024.59	411.011
3023.96	382.746
3023.34	346.433
3022.72	414.85
3022.1	406.732
3021.48	366.406
3020.86	382.453
3020.24	402.52
3019.62	342.09
3019	398.373
3018.38	414.405
3017.75	358.024
3017.13	353.947
3016.51	361.935
3015.89	402.089
3015.27	369.865
3014.65	377.848
3014.02	401.904
3013.4	393.806
3012.78	413.834
3012.16	405.736
3011.53	413.707
3010.91	385.532
3010.29	417.596
3009.67	393.444
3009.04	389.369
3008.42	441.485
3007.8	369.185
3007.17	413.264
3006.55	369.072
3005.93	360.993
3005.3	372.969
3004.68	360.883
3004.06	400.919
3003.43	400.858
3002.81	400.796
3002.19	352.647
3001.56	340.572
3000.94	372.569
3000.31	384.528
2999.69	424.518
2999.07	364.389
2998.44	344.315
2997.82	368.28
2997.19	420.255
2996.57	384.175
2995.94	388.117
2995.32	396.058
2994.69	375.998
2994.07	379.939
2993.44	363.886
2992.82	419.804
2992.19	399.752
2991.57	415.678
2990.94	431.6
2990.32	451.512
2989.69	375.536
2989.06	387.462
2988.44	419.353
2987.81	447.241
2987.19	391.276
2986.56	411.176
2985.93	367.207
2985.31	415.04
2984.68	383.055
2984.05	406.934
2983.43	386.927
2982.8	430.739
2982.17	394.783
2981.55	434.593
2980.92	406.621
2980.29	382.644
2979.66	378.599
2979.04	410.418
2978.41	442.228
2977.78	474.027
2977.15	426.16
2976.53	442.024
2975.9	433.993
2975.27	402.078
2974.64	453.761
2974.01	382.056
2973.39	469.538
2972.76	413.767
2972.13	433.592
2971.5	405.685
2970.87	405.622
2970.24	409.536
2969.61	488.982
2968.98	417.36
2968.36	389.476
2967.73	500.678
2967.1	417.167
2966.47	452.855
2965.84	464.7
2965.21	460.658
2964.58	460.587
2963.95	476.396
2963.32	464.414
2962.69	412.749
2962.06	428.558
2961.43	480.07
2960.8	432.393
2960.17	452.158
2959.54	444.157
2958.91	551.146
2958.28	463.843
2957.65	483.591
2957.02	483.516
2956.39	424.002
2955.75	499.216
2955.12	455.563
2954.49	471.336
2953.86	530.667
2953.23	510.787
2952.6	471.119
2951.97	490.838
2951.33	514.509
2950.7	526.301
2950.07	494.568
2949.44	522.183
2948.81	506.281
2948.18	490.384
2947.54	498.217
2946.91	494.187
2946.28	521.781
2945.65	521.701
2945.01	470.248
2944.38	533.393
2943.75	517.509
2943.11	568.777
2942.48	501.552
2941.85	560.705
2941.21	489.554
2940.58	509.215
2939.95	481.509
2939.31	513.005
2938.68	505.034
2938.05	465.507
2937.41	564.044
2936.78	492.97
2936.15	488.95
2935.51	512.53
2934.88	536.103
2934.24	524.196
2933.61	524.115
2932.97	531.915
2932.34	555.47
2931.7	504.178
2931.07	504.101
2930.43	464.646
2929.8	515.756
2929.16	551.105
2928.53	551.02
2927.89	444.683
2927.26	519.373
2926.62	531.095
2925.99	519.212
2925.35	558.46
2924.72	503.323
2924.08	589.741
2923.44	581.788
2922.81	617.072
2922.17	593.398
2921.54	518.652
2920.9	608.929
2920.26	522.419
2919.63	490.92
2918.99	589.013
2918.35	537.882
2917.72	580.98
2917.08	584.815
2916.44	541.557
2915.81	502.236
2915.17	549.236
2914.53	580.531
2913.89	588.286
2913.26	548.982
2912.62	584.183
2911.98	552.732
2911.34	599.681
2910.7	568.237
2910.07	532.885
2909.43	603.32
2908.79	560.139
2908.15	607.05
2907.51	603.041
2906.87	599.032
2906.24	571.537
2905.6	551.879
2904.96	657.456
2904.32	594.749
2903.68	571.184
2903.04	575.007
2902.4	586.651
2901.76	617.844
2901.12	574.74
2900.48	570.742
2899.84	582.38
2899.2	594.014
2898.57	582.2
2897.93	621.177
2897.29	683.58
2896.65	566.307
2896	628.699
2895.36	609.08
2894.72	624.601
2894.08	612.795
2893.44	604.895
2892.8	636.017
2892.16	647.622
2891.52	628.019
2890.88	647.422
2890.24	623.925
2889.6	627.727
2888.96	573.053
2888.31	631.43
2887.67	619.641
2887.03	635.131
2886.39	623.345
2885.75	642.725
2885.11	607.574
2884.46	599.691
2883.82	634.64
2883.18	622.863
2882.54	743.428
2881.9	634.345
2881.25	634.247
2880.61	603.025
2879.97	688.509
2879.32	684.513
2878.68	622.188
2878.04	653.196
2877.4	633.658
2876.75	664.654
2876.11	652.893
2875.47	652.792
2874.82	609.955
2874.18	730.278
2873.53	636.953
2872.89	632.971
2872.25	683.347
2871.6	613.364
2870.96	659.847
2870.31	702.434
2869.67	648.001
2869.03	605.225
2868.38	659.438
2867.74	628.308
2867.09	698.011
2866.45	593.218
2865.8	678.412
2865.16	693.811
2864.51	782.838
2863.87	697.47
2863.22	697.362
2862.58	755.359
2861.93	735.876
2861.29	654.441
2860.64	588.518
2859.99	669.723
2859.35	692.843
2858.7	743.046
2858.06	688.758
2857.41	700.258
2856.76	715.622
2856.12	727.114
2855.47	750.204
2854.82	703.69
2854.18	672.654
2853.53	730.528
2852.88	726.55
2852.24	710.981
2851.59	679.963
2850.94	753.252
2850.3	710.65
2849.65	745.294
2849	760.623
2848.35	706.459
2847.71	744.947
2847.06	671.506
2846.41	787.161
2845.76	733.026
2845.11	759.914
2844.47	786.794
2843.82	740.397
2843.17	751.849
2842.52	705.472
2841.87	720.78
2841.22	716.814
2840.57	728.263
2839.93	755.118
2839.28	739.592
2838.63	789.546
2837.98	774.02
2837.33	712.296
2836.68	742.982
2836.03	742.867
2835.38	800.478
2834.73	792.658
2834.08	792.535
2833.43	811.645
2832.78	753.828
2832.13	772.938
2831.48	772.818
2830.83	707.345
2830.18	818.702
2829.53	710.968
2828.88	749.282
2828.23	833.687
2827.58	756.732
2826.93	737.411
2826.27	871.699
2825.62	725.663
2824.97	775.456
2824.32	855.939
2823.67	859.644
2823.02	840.324
2822.37	821.011
2821.71	774.853
2821.06	790.073
2820.41	858.975
2819.76	832.003
2819.11	808.872
2818.45	739.754
2817.8	866.105
2817.15	873.634
2816.5	808.368
2815.84	773.768
2815.19	842.586
2814.54	773.527
2813.89	819.351
2813.23	811.568
2812.58	849.717
2811.93	796.007
2811.27	795.883
2810.62	872.274
2809.97	814.761
2809.31	849.055
2808.66	871.867
2808	814.38
2807.35	791.317
2806.7	829.415
2806.04	829.286
2805.39	821.515
2804.73	924.538
2804.08	798.34
2803.42	889.877
2802.77	901.194
2802.12	847.601
2801.46	878.009
2800.81	893.139
2800.15	915.897
2799.5	843.257
2798.84	866.016
2798.18	846.809
2797.53	907.699
2796.87	888.491
2796.22	953.168
2795.56	888.214
2794.91	861.395
2794.25	853.639
2793.59	849.695
2792.94	849.563
2792.28	868.476
2791.62	898.808
2790.97	951.979
2790.31	849.033
2789.65	909.808
2789	883.023
2788.34	962.802
2787.68	924.602
2787.03	935.871
2786.37	1008
2785.71	893.744
2785.05	935.433
2784.4	893.465
2783.74	954.148
2783.08	957.8
2782.42	912.048
2781.77	904.306
2781.11	953.552
2780.45	957.202
2779.79	983.637
2779.13	964.497
2778.47	971.94
2777.82	949.012
2777.16	1009.59
2776.5	994.254
2775.84	925.802
2775.18	967.388
2774.52	914.133
2773.86	895.028
2773.2	985.894
2772.54	936.453
2771.88	955.26
2771.22	1019.54
2770.57	947.383
2769.91	969.968
2769.25	931.933
2768.59	988.604
2767.93	1030.11
2767.26	1026.16
2766.6	1033.57
2765.94	965.274
2765.28	1093.81
2764.62	1006.6
2763.96	979.956
2763.3	979.803
2762.64	1002.34
2761.98	1077.82
2761.32	1020.94
2760.66	1066.15
2760	997.937
2759.33	1024.24
2758.67	1050.53
2758.01	952.13
2757.35	1087.98
2756.69	1076.48
2756.03	1019.66
2755.36	1072.36
2754.7	1075.97
2754.04	1004.08
2753.38	1105.83
2752.71	1052.83
2752.05	992.293
2751.39	984.593
2750.73	1052.33
2750.06	1108.73
2749.4	1029.38
2748.74	1074.46
2748.07	1123.29
2747.41	1070.35
2746.75	1156.85
2746.08	1039.88
2745.42	1122.59
2744.76	1043.32
2744.09	1110.94
2743.43	1054.29
2742.76	1148.24
2742.1	997.494
2741.44	1162.93
2740.77	1049.86
2740.11	1102.37
2739.44	1060.82
2738.78	1075.7
2738.11	1049.21
2737.45	1075.36
2736.78	1097.75
2736.12	1138.92
2735.45	1131.23
2734.79	1014.56
2734.12	1134.63
2733.46	1153.24
2732.79	1051.65
2732.12	1167.9
2731.46	1096.37
2730.79	1152.51
2730.13	1084.77
2729.46	1140.89
2728.79	1076.92
2728.13	1166.8
2727.46	1174.12
2726.8	1196.44
2726.13	1110
2725.46	1173.57
2724.79	1177.13
2724.13	1128.22
2723.46	1195.5
2722.79	1146.6
2722.13	1247.57
2721.46	1090.05
2720.79	1161.04
2720.12	1093.45
2719.46	1183.14
2718.79	1175.47
2718.12	1115.4
2717.45	1238.72
2716.78	1182.4
2716.12	1167.25
2715.45	1144.62
2714.78	1211.76
2714.11	1260.19
2713.44	1091.74
2712.77	1185.03
2712.1	1121.3
2711.44	1233.24
2710.77	1259.2
2710.1	1191.75
2709.43	1266.27
2708.76	1217.52
2708.09	1269.61
2707.42	1217.14
2706.75	1209.48
2706.08	1194.36
2705.41	1220.3
2704.74	1235.03
2704.07	1268.41
2703.4	1230.91
2702.73	1241.91
2702.06	1293.92
2701.39	1204.24
2700.72	1248.78
2700.05	1300.76
2699.38	1214.85
2698.7	1244.46
2698.03	1244.27
2697.36	1299.94
2696.69	1322.09
2696.02	1273.47
2695.35	1288.16
2694.68	1273.07
2694.01	1231.93
2693.33	1276.39
2692.66	1257.59
2691.99	1387.59
2691.32	1290.67
2690.64	1305.34
2689.97	1342.32
2689.3	1174.81
2688.63	1319.59
2687.95	1323.1
2687.28	1363.77
2686.61	1278.1
2685.94	1322.48
2685.26	1262.84
2684.59	1355.49
2683.92	1392.4
2683.24	1306.8
2682.57	1406.81
2681.9	1280.41
2681.22	1313.6
2680.55	1291.13
2679.87	1339.15
2679.2	1327.82
2678.53	1320.19
2677.85	1371.89
2677.18	1316.07
2676.5	1356.63
2675.83	1286.01
2675.15	1345.09
2674.48	1378.22
2673.8	1400.23
2673.13	1362.97
2672.45	1396.09
2671.78	1318.11
2671.1	1410.46
2670.43	1373.22
2669.75	1387.81
2669.08	1346.89
2668.4	1391.07
2667.73	1409.35
2667.05	1305.57
2666.37	1375.62
2665.7	1419.77
2665.02	1415.85
2664.34	1367.58
2663.67	1444.97
2662.99	1326.5
2662.32	1418.65
2661.64	1396.27
2660.96	1492.07
2660.28	1384.75
2659.61	1373.46
2658.93	1424.92
2658.25	1483.75
2657.58	1428.16
2656.9	1475.9
2656.22	1438.78
2655.54	1350.03
2654.86	1486.27
2654.19	1467.6
2653.51	1507.92
2652.83	1511.37
2652.15	1470.59
2651.47	1485.1
2650.79	1514.34
2650.12	1374.11
2649.44	1491.76
2648.76	1532.04
2648.08	1498.65
2647.4	1531.55
2646.72	1428.24
2646.04	1538.43
2645.36	1486.67
2644.68	1519.55
2644	1578.17
2643.32	1555.85
2642.64	1511.47
2641.96	1562.71
2641.28	1540.41
2640.6	1514.43
2639.92	1506.85
2639.24	1458.84
2638.56	1631.29
2637.88	1579.6
2637.2	1597.72
2636.52	1579.1
2635.84	1553.15
2635.16	1516.19
2634.48	1548.99
2633.8	1574.44
2633.12	1757.66
2632.43	1570.27
2631.75	1518.67
2631.07	1668.8
2630.39	1606.2
2629.71	1481.28
2629.03	1561.7
2628.34	1506.47
2627.66	1517.23
2626.98	1520.65
2626.3	1784.19
2625.61	1564.13
2624.93	1552.89
2624.25	1625.88
2623.57	1592.68
2622.88	1618.05
2622.2	1537.27
2621.52	1613.88
2620.83	1613.62
2620.15	1668.24
2619.47	1616.77
2618.78	1594.57
2618.1	1572.38
2617.42	1674.5
2616.73	1747.35
2616.05	1567.98
2615.36	1640.82
2614.68	1640.56
2614	1720.67
2613.31	1512.2
2612.63	1669
2611.94	1734.46
2611.26	1617.36
2610.57	1639
2609.89	1587.65
2609.2	1682.27
2608.52	1660.12
2607.83	1634.32
2607.15	1619.47
2606.46	1724.97
2605.78	1768.45
2605.09	1735.36
2604.4	1705.93
2603.72	1661.92
2603.03	1727.25
2602.35	1679.61
2601.66	1624.7
2600.97	1675.44
2600.29	1755.29
2599.6	1634.86
2598.91	1616.39
2598.23	1783.58
2597.54	1688.67
2596.85	1728.43
2596.17	1669.94
2595.48	1771.53
2594.79	1727.61
2594.1	1741.88
2593.42	1654.34
2592.73	1792.22
2592.04	1741.05
2591.35	1722.6
2590.66	1787.74
2589.98	1663.93
2589.29	1667.3
2588.6	1805.05
2587.91	1804.76
2587.22	1811.74
2586.53	1749.74
2585.84	1727.68
2585.16	1774.58
2584.47	1872.27
2583.78	1810.3
2583.09	1820.89
2582.4	1802.47
2581.71	1755.05
2581.02	1830.91
2580.33	1852.36
2579.64	1804.95
2578.95	1859.02
2578.26	1981.92
2577.57	1757
2576.88	1825.54
2576.19	1865.09
2575.5	1730.82
2574.81	1813.81
2574.12	1889.54
2573.43	1838.57
2572.74	1881.7
2572.05	1819.9
2571.36	1877.49
2570.66	1855.49
2569.97	1902.21
2569.28	1797.05
2568.59	1825.68
2567.9	1890.46
2567.21	1901
2566.51	1857.33
2565.82	1932.91
2565.13	1907.32
2564.44	1870.9
2563.75	1935.6
2563.05	1913.63
2562.36	1949.43
2561.67	1923.85
2560.98	1930.76
2560.28	1995.41
2559.59	1959.01
2558.9	1965.91
2558.2	1962
2557.51	1990.53
2556.82	1939.74
2556.12	1982.69
2555.43	1939.12
2554.74	1877.55
2554.04	1880.86
2553.35	1985.03
2552.65	1959.5
2551.96	1948.39
2551.27	1922.87
2550.57	2124.18
2549.88	1951.06
2549.18	2001.14
2548.49	1943.24
2547.79	1964.52
2547.1	2090.12
2546.4	2057.41
2545.71	2136.2
2545.01	2114.29
2544.32	2042.05
2543.62	2081.27
2542.93	2080.94
2542.23	2077.01
2541.53	2198.84
2540.84	2166.16
2540.14	2169.4
2539.45	2176.24
2538.75	2093.31
2538.05	2240.17
2537.36	2085.47
2536.66	2135.38
2535.96	2350.34
2535.27	2059.36
2534.57	2234.8
2533.87	2177.06
2533.18	2255.6
2532.48	2298.27
2531.78	2269.23
2531.08	2215.1
2530.39	2307.92
2529.69	2282.48
2528.99	2171.05
2528.29	2263.84
2527.59	2324.36
2526.9	2409.93
2526.2	2223.37
2525.5	2283.87
2524.8	2290.67
2524.1	2258.1
2523.4	2307.83
2522.71	2325.35
2522.01	2396.52
2521.31	2321.03
2520.61	2388.6
2519.91	2288.12
2519.21	2212.68
2518.51	2301.68
2517.81	2229.85
2517.11	2265.22
2516.41	2282.72
2515.71	2364.51
2515.01	2246.28
2514.31	2345.9
2513.61	2291.97
2512.91	2462.94
2512.21	2401.88
2511.51	2426.48
2510.81	2329.76
2510.11	2272.31
2509.41	2361.12
2508.71	2282.29
2508	2445.93
2507.3	2342.16
2506.6	2359.61
2505.9	2302.21
2505.2	2430.12
2504.5	2362.04
2503.79	2279.74
2503.09	2354.17
2502.39	2396.52
2501.69	2310.69
2500.99	2264.04
2500.28	2356.22
2499.58	2412.78
2498.88	2312.77
2498.18	2212.79
2497.47	2354.72
2496.77	2315.22
2496.07	2254.4
2495.36	2339.37
2494.66	2349.66
2493.96	2288.86
2493.25	2252.96
2492.55	2398.28
2491.85	2408.55
2491.14	2372.65
2490.44	2418.43
2489.73	2375.44
2489.03	2307.61
2488.33	2339.18
2487.62	2338.81
2486.92	2338.44
2486.21	2465.79
2485.51	2270.29
2484.8	2287.66
2484.1	2407.87
2483.39	2425.21
2482.69	2311.38
2481.98	2410.26
2481.28	2285.83
2480.57	2359.88
2479.87	2394.93
2479.16	2444.14
2478.45	2426.04
2477.75	2322.96
2477.04	2386.32
2476.34	2308.06
2475.63	2385.55
2474.92	2402.87
2474.22	2455.56
2473.51	2426.86
2472.8	2309.75
2472.1	2443.77
2471.39	2354.98
2470.68	2347.53
2469.97	2378.97
2469.27	2456.34
2468.56	2431.21
2467.85	2526.22
2467.14	2380.98
2466.44	2465.37
2465.73	2390.81
2465.02	2351.59
2464.31	2453.59
2463.6	2414.37
2462.9	2382.22
2462.19	2395.96
2461.48	2607.26
2460.77	2441.05
2460.06	2535.88
2459.35	2535.48
2458.64	2506.86
2457.93	2573.44
2457.22	2463.76
2456.52	2484.52
2455.81	2367.84
2455.1	2522.47
2454.39	2486.84
2453.68	2521.66
2452.97	2457.88
2452.26	2612.4
2451.55	2509.89
2450.84	2456.7
2450.13	2561.87
2449.42	2455.91
2448.7	2532.91
2447.99	2638.02
2447.28	2440.66
2446.57	2605.53
2445.86	2489.1
2445.15	2502.76
2444.44	2579.68
2443.73	2561.69
2443.02	2540.2
2442.3	2571.41
2441.59	2658.81
2440.88	2528.45
2440.17	2636.89
2439.46	2594.34
2438.74	2597.43
2438.03	2705.81
2437.32	2610.63
2436.61	2561.1
2435.89	2665.92
2435.18	2546.25
2434.47	2626.49
2433.75	2738.26
2433.04	2559.04
2432.33	2744.4
2431.61	2684.38
2430.9	2669.93
2430.19	2792.12
2429.47	2714.61
2428.76	2745.7
2428.05	2608.69
2427.33	2800.83
2426.62	2824.88
2425.9	2659.94
2425.19	2771.49
2424.47	2806.03
2423.76	2606.18
2423.05	2682.71
2422.33	2692.77
2421.62	2653.88
2420.9	2807.27
2420.19	2733.42
2419.47	2753.95
2418.75	2750.01
2418.04	2767.04
2417.32	2735.16
2416.61	2766.15
2415.89	2713.33
2415.18	2733.84
2414.46	2736.89
2413.74	2771.35
2413.03	2767.42
2412.31	2704.17
2411.59	2714.2
2410.88	2832.36
2410.16	2776.1
2409.44	2897.7
2408.73	2792.64
2408.01	2767.79
2407.29	2784.77
2406.57	2843.57
2405.86	2884.92
2405.14	2769.5
2404.42	2810.85
2403.7	2873.08
2402.99	2768.16
2402.27	3039.26
2401.55	2896.06
2400.83	2801.63
2400.11	2874.25
2399.39	2800.72
2398.68	2949.85
2397.96	2848.52
2397.24	2844.58
2396.52	2962.34
2395.8	2937.53
2395.08	2916.2
2394.36	2940.06
2393.64	2950.01
2392.92	2970.38
2392.2	3028.95
2391.48	2979.84
2390.76	2826.57
2390.04	2940.69
2389.32	2995.76
2388.6	2981.39
2387.88	3064.2
2387.16	2970.02
2386.44	3056.27
2385.72	3028.03
2385	2947.78
2384.28	2926.5
2383.56	2974.56
2382.83	3130.07
2382.11	3025.59
2381.39	3000.85
2380.67	3045.41
2379.95	3017.2
2379.23	3034.03
2378.5	2908.88
2377.78	3026.13
2377.06	3091.42
2376.34	2987.08
2375.62	3159.64
2374.89	3051.86
2374.17	3044.45
2373.45	3005.91
2372.73	2915.5
2372	3025.69
2371.28	3111.63
2370.56	3169.9
2369.83	3110.63
2369.11	3072.12
2368.39	3068.17
2367.66	3181.67
2366.94	3201.88
2366.21	3159.93
2365.49	3200.85
2364.77	3138.19
2364.04	3154.94
2363.32	3123.37
2362.59	3147.02
2361.87	3208.62
2361.14	3215
2360.42	3086.87
2359.69	3182.93
2358.97	3247.92
2358.24	3209.48
2357.52	3174.49
2356.79	3249.8
2356.07	3211.37
2355.34	3141.95
2354.62	3227.56
2353.89	3254.59
2353.16	3298.83
2352.44	3205.33
2351.71	3304.65
2350.99	3228.39
2350.26	3248.52
2349.53	3210.15
2348.81	3247.47
2348.08	3222.87
2347.35	3157.01
2346.62	3225.26
2345.9	3321
2345.17	3303.28
2344.44	3319.93
2343.72	3346.88
2342.99	3401.31
2342.26	3352.67
2341.53	3372.74
2340.8	3348.16
2340.08	3272.08
2339.35	3357.37
2338.62	3367.13
2337.89	3390.6
2337.16	3424.37
2336.43	3296.88
2335.7	3423.26
2334.98	3395.27
2334.25	3429.01
2333.52	3366.74
2332.79	3565.02
2332.06	3434.2
2331.33	3481.62
2330.6	3398.83
2329.87	3569.56
2329.14	3473.08
2328.41	3448.55
2327.68	3410.33
2326.95	3457.7
2326.22	3477.68
2325.49	3552.41
2324.76	3517.62
2324.03	3653.9
2323.3	3554.11
2322.57	3505.65
2321.83	3542.7
2321.1	3624.18
2320.37	3466.34
2319.64	3609.33
2318.91	3649.76
2318.18	3615
2317.45	3631.5
2316.71	3654.82
2315.98	3729.36
2315.25	3718.51
2314.52	3745.22
2313.78	3864.09
2313.05	3672.34
2312.32	3603.49
2311.59	3712.09
2310.85	3595.5
2310.12	3721.12
2309.39	3594.34
2308.65	3607.39
2307.92	3726.13
2307.19	3599.41
2306.45	3605.64
2305.72	3649.35
2304.99	3556.78
2304.25	3678.83
2303.52	3777
2302.78	3735.52
2302.05	3792.8
2301.32	3809.2
2300.58	3713.28
2299.85	3668.44
2299.11	3814.15
2298.38	3755.7
2297.64	3731.28
2296.91	3798.69
2296.17	3699.47
2295.44	3851.86
2294.7	3807.04
2293.96	3779.24
2293.23	3799.01
2292.49	3866.35
2291.76	3753.62
2291.02	3827.73
2290.29	3793.15
2289.55	3802.72
2288.81	3774.95
2288.08	3876.16
2287.34	3749.97
2286.6	3824
2285.87	3758.93
2285.13	3754.92
2284.39	3964.58
2283.65	3838.48
2282.92	3692.07
2282.18	3718.59
2281.44	3856.94
2280.7	3941.03
2279.97	3784.54
2279.23	3882.16
2278.49	3932.34
2277.75	3836.88
2277.01	3812.55
2276.27	3916.88
2275.54	4011.02
2274.8	3898.69
2274.06	3850.68
2273.32	3779.01
2272.58	3913.7
2271.84	3990.85
2271.1	3942.86
2270.36	3871.22
2269.62	3924.68
2268.88	4089.65
2268.14	3997.75
2267.4	3970.07
2266.66	3959.29
2265.92	4083.62
2265.18	3978.26
2264.44	3916.84
2263.7	3936.46
2262.96	4037.08
2262.22	3999.3
2261.48	3927.79
2260.74	4035.11
2260	3990.6
2259.26	3993.32
2258.52	3935.35
2257.77	4052.71
2257.03	3981.26
2256.29	4051.4
2255.55	4104.66
2254.81	4275.83
2254.06	4059.52
2253.32	4112.76
2252.58	4078.41
2251.84	4114.79
2251.1	4147.78
2250.35	4110.08
2249.61	4163.26
2248.87	4155.85
2248.12	4124.9
2247.38	4204.96
2246.64	4177.37
2245.89	3971.55
2245.15	4135.66
2244.41	4262.73
2243.66	4265.4
2242.92	4257.98
2242.17	4294.25
2241.43	4179.33
2240.69	4302.93
2239.94	4177.96
2239.2	4190.71
2238.45	4317.61
2237.71	4175.92
2236.96	4282.64
2236.22	4023.55
2235.47	4338.29
2234.73	4337.58
2233.98	4229.54
2233.24	4242.26
2232.49	4315.34
2231.75	4271.05
2231	4347.45
2230.25	4246.2
2229.51	4332.63
2228.76	4425.73
2228.02	4438.41
2227.27	4441.03
2226.52	4376.69
2225.78	4315.71
2225.03	4345.13
2224.28	4384.59
2223.54	4450.8
2222.79	4316.24
2222.04	4402.51
2221.29	4548.97
2220.55	4441.21
2219.8	4560.86
2219.05	4479.88
2218.3	4509.23
2217.55	4535.23
2216.81	4494.39
2216.06	4503.68
2215.31	4549.71
2214.56	4442.09
2213.81	4491.46
2213.06	4450.66
2212.31	4663.58
2211.57	4719.56
2210.82	4581.96
2210.07	4644.61
2209.32	4643.85
2208.57	4609.74
2207.82	4535.62
2207.07	4461.52
2206.32	4590.81
2205.57	4653.4
2204.82	4612.64
2204.07	4608.56
2203.32	4557.83
2202.57	4696.99
2201.82	4792.81
2201.07	4835.32
2200.32	4628.1
2199.56	4624.01
2198.81	4530.06
2198.06	4642.47
2197.31	4621.75
2196.56	4837.23
2195.81	4623.56
2195.06	4679.34
2194.3	4808.26
2193.55	4824.1
2192.8	4680.37
2192.05	4583.22
2191.3	4622.35
2190.54	4754.49
2189.79	4683.95
2189.04	4799.44
2188.29	4798.65
2187.53	4940.64
2186.78	4953.11
2186.03	4909.15
2185.27	4832.02
2184.52	4831.23
2183.77	4880.2
2183.01	4895.99
2182.26	4775.79
2181.5	4967.34
2180.75	4903.53
2180	4756.87
2179.24	4865.47
2178.49	4828.22
2177.73	4863.87
2176.98	4896.2
2176.22	4938.46
2175.47	4831.68
2174.71	4973.26
2173.96	5045.28
2173.2	4925.3
2172.45	4957.58
2171.69	4831.03
2170.94	5051.9
2170.18	4925.38
2169.42	4921.26
2168.67	5029.58
2167.91	5190.76
2167.16	5031.24
2166.4	5007.28
2165.64	5072.55
2164.89	5114.67
2164.13	5011.42
2163.37	5027.12
2162.62	5125.36
2161.86	5048.58
2161.1	5054.36
2160.34	4921.49
2159.59	5135.2
2158.83	5065.07
2158.07	5123.62
2157.31	5228.34
2156.56	5009.81
2155.8	5121.1
2155.04	4938.93
2154.28	5046.9
2153.52	5013.11
2152.76	5233.08
2152	5064.19
2151.25	5162.18
2150.49	5167.92
2149.73	5242.82
2148.97	5248.55
2148.21	5092.95
2147.45	5177.7
2146.69	5315.07
2145.93	5366.85
2145.17	5234.37
2144.41	5292.72
2143.65	5466.16
2142.89	5162.74
2142.13	5244.08
2141.37	5378
2140.61	5275.23
2139.85	5231.64
2139.09	5421.35
2138.33	5262.78
2137.56	5416.29
2136.8	5185.51
2136.04	5368.54
2135.28	5275.73
2134.52	5324.1
2133.76	5356.05
2133	5289.54
2132.23	5442.87
2131.47	5209.08
2130.71	5326.29
2129.95	5407.39
2129.18	5337.65
2128.42	5523.63
2127.66	5296.57
2126.9	5213.77
2126.13	5416.06
2125.37	5464.31
2124.61	5535.47
2123.84	5318.42
2123.08	5422.32
2122.32	5408.33
2121.55	5377.98
2120.79	5658.55
2120.02	5402.39
2119.26	5594.53
2118.5	5443.14
2117.73	5448.79
2116.97	5454.43
2116.2	5469.88
2115.44	5488.59
2114.67	5566.13
2113.91	5293.98
2113.14	5456.48
2112.38	5677.72
2111.61	5425.29
2110.85	5496.24
2110.08	5590.03
2109.31	5670.72
2108.55	5637.15
2107.78	5473.04
2107.02	5651.61
2106.25	5715.93
2105.48	5672.58
2104.72	5534.66
2103.95	5638.1
2103.18	5761.07
2102.42	5564.53
2101.65	5791.76
2100.88	5862.5
2100.12	5578.07
2099.35	5476.16
2098.58	5605.55
2097.81	5702.32
2097.05	5672.08
2096.28	5641.84
2095.51	5624.64
2094.74	5669.27
2093.97	5648.82
2093.2	5807.3
2092.44	5679.48
2091.67	5620
2090.9	5719.88
2090.13	5644.16
2089.36	5574.97
2088.59	5717.05
2087.82	5836.35
2087.05	5848.38
2086.28	5795.44
2085.51	5778.24
2084.74	5881.21
2083.97	5935.44
2083.2	5726.69
2082.43	5936.73
2081.66	6036.35
2080.89	5834.18
2080.12	5755.35
2079.35	5832.25
2078.58	5763.18
2077.81	5820.6
2077.04	5728.86
2076.27	5912.69
2075.5	5645.94
2074.72	5913.98
2073.95	5925.96
2073.18	5853.71
2072.41	6011.45
2071.64	5867.97
2070.86	6041.85
2070.09	6121.78
2069.32	5942.75
2068.55	5996.78
2067.77	5914.9
2067	5959.22
2066.23	5951.76
2065.46	6044.57
2064.68	5904.53
2063.91	6071.67
2063.14	5892.88
2062.36	5904.83
2061.59	5978.18
2060.82	6025.66
2060.04	6021.43
2059.27	5955.84
2058.49	6116.32
2057.72	5986.16
2056.94	6114.3
2056.17	6077.78
2055.4	6092.91
2054.62	6117.72
2053.85	6065.09
2053.07	6018.93
2052.3	6192.09
2051.52	6107.22
2050.74	5916
2049.97	6034.29
2049.19	6084.86
2048.42	6154.74
2047.64	6031.29
2046.87	6059.29
2046.09	6003.53
2045.31	6124.91
2044.54	6362.15
2043.76	6097.13
2042.98	6269.93
2042.21	6207.75
2041.43	6383.69
2040.65	6305.42
2039.88	6407.3
2039.1	6017.11
2038.32	6215.47
2037.54	6217.66
2036.76	6200.56
2035.99	6299.16
2035.21	6265.98
2034.43	6367.75
2033.65	6279.97
2032.87	6166.52
2032.1	6348.54
2031.32	6341.06
2030.54	6272.6
2029.76	6464.14
2028.98	6312.24
2028.2	6388.2
2027.42	6422.43
2026.64	6392.5
2025.86	6381.82
2025.08	6438.47
2024.3	6280.32
2023.52	6276.07
2022.74	6464.12
2021.96	6555.97
2021.18	6471.59
2020.4	6448.09
2019.62	6488.66
2018.84	6542.02
2018.06	6339.23
2017.28	6501.44
2016.5	6557.97
2015.72	6524.88
2014.94	6616.58
2014.15	6541.91
2013.37	6368.11
2012.59	6526.95
2011.81	6458.72
2011.03	6457.65
2010.24	6363.88
2009.46	6714.37
2008.68	6732.42
2007.9	6584.35
2007.11	6810.04
2006.33	6626.87
2005.55	6600.23
2004.77	6698.11
2003.98	6591.65
2003.2	6724.61
2002.42	6675.62
2001.63	6633.04
2000.85	6657.46
2000.06	6649.97
1999.28	6693.51
1998.5	6542.55
1997.71	6592.47
1996.93	6467.07
1996.14	6733.68
1995.36	6723.01
1994.57	6683.66
1993.79	6739.88
1993	6786.54
1992.22	6702.62
1991.43	6886.16
1990.65	6859.55
1989.86	6871.14
1989.08	6749.08
1988.29	6910.21
1987.51	6629.14
1986.72	6981.07
1985.93	6677.82
1985.15	6759.37
1984.36	6837.72
1983.57	6957.36
1982.79	7124.62
1982	7034.47
1981.21	6992.01
1980.43	6857.44
1979.64	6929.34
1978.85	6839.29
1978.06	6949.26
1977.28	6948.11
1976.49	6794.62
1975.7	7098.1
1974.91	7011.26
1974.12	7038.64
1973.34	6986.73
1972.55	6899.95
1971.76	6936.85
1970.97	6973.73
1970.18	7073.99
1969.39	7012.61
1968.6	7144.51
1967.82	7184.5
1967.03	7183.3
1966.24	7121.94
1965.45	7285.4
1964.66	7125.9
1963.87	7051.92
1963.08	7095.05
1962.29	7191.95
1961.5	7127.48
1960.71	7132.62
1959.92	6951.17
1959.13	7073.33
1958.33	7223.9
1957.54	7336.49
1956.75	7316.31
1955.96	7106.54
1955.17	7307.55
1954.38	7265.27
1953.59	7213.52
1952.8	6988.12
1952	7245.85
1951.21	7083.65
1950.42	7375.99
1949.63	7384.23
1948.83	7263.11
1948.04	7425.93
1947.25	7058.82
1946.46	7303.62
1945.66	7513.66
1944.87	7364.24
1944.08	7158.13
1943.28	7399.6
1942.49	7086.42
1941.7	7327.82
1940.9	7235.25
1940.11	7189.96
1939.32	7664.23
1938.52	7439.42
1937.73	7321.71
1936.93	7474.7
1936.14	7331.86
1935.34	7358.95
1934.55	7392.32
1933.75	7516.89
1932.96	7393
1932.16	7332.03
1931.37	7484.84
1930.57	7414.44
1929.78	7394.35
1928.98	7424.53
1928.19	7423.29
1927.39	7679.61
1926.59	7499.33
1925.8	7416.44
1925	7609.84
1924.21	7724.71
1923.41	7497.46
1922.61	7593.48
1921.82	7611.03
1921.02	7537.61
1920.22	7451.68
1919.42	7459.84
1918.63	7524.43
1917.83	7692.44
1917.03	7434.16
1916.23	7677.34
1915.44	7616.53
1914.64	7665.38
1913.84	7620.25
1913.04	7684.73
1912.24	7420.45
1911.44	7560.08
1910.65	7662.1
1909.85	7695.24
1909.05	7609.48
1908.25	7736.47
1907.45	7791.47
1906.65	7674.46
1905.85	7626.27
1905.05	7650.01
1904.25	7548.7
1903.45	7663.08
1902.65	7586.8
1901.85	7838.59
1901.05	7790.42
1900.25	7810.98
1899.45	7681.65
1898.65	7933.25
1897.85	7778.97
1897.05	7677.79
1896.25	7770.12
1895.44	7619.06
1894.64	7804.95
1893.84	7853.55
1893.04	7839.76
1892.24	7907.04
1891.44	8008.59
1890.63	7951.15
1889.83	8018.38
1889.03	7774
1888.23	8003.23
1887.42	8017.46
1886.62	8044.15
1885.82	8033.46
1885.02	7864
1884.21	8040.11
1883.41	8057.43
1882.61	8099.65
1881.8	8051.62
1881	7888.52
1880.19	7912.08
1879.39	8053.79
1878.59	8201.68
1877.78	7889.45
1876.98	7990.69
1876.17	8020.43
1875.37	8177.54
1874.56	8002.21
1873.76	8106.47
1872.95	8018.15
1872.15	8075.8
1871.34	8062.03
1870.54	8237.6
1869.73	8208.29
1868.93	8299.99
1868.12	8323.42
1867.31	8380.96
1866.51	8218.29
1865.7	8033.96
1864.9	8097.72
1864.09	8279.24
1863.28	8243.76
1862.48	8254.77
1861.67	8200.72
1860.86	8165.27
1860.05	8173.19
1859.25	8394.77
1858.44	8281.9
1857.63	8364.09
1856.82	8207.94
1856.02	8212.75
1855.21	8409.38
1854.4	8377.04
1853.59	8332.33
1852.78	8380.41
1851.97	8459.39
1851.17	8337.41
1850.36	8206.19
1849.55	8275.89
1848.74	8308.49
1847.93	8461.55
1847.12	8487.93
1846.31	8384.59
1845.5	8494.34
1844.69	8511.44
1843.88	8571.74
1843.07	8449.94
1842.26	8411.49
1841.45	8638.38
1840.64	8309.96
1839.83	8496.69
1839.02	8569.27
1838.21	8666.48
1837.4	8692.77
1836.59	8571.11
1835.78	8705.25
1834.96	8657.57
1834.15	8730.05
1833.34	8596.14
1832.53	8702.48
1831.72	8793.38
1830.9	8671.84
1830.09	8808.89
1829.28	8905.88
1828.47	8762.85
1827.65	8964.41
1826.84	8815.26
1826.03	8939.87
1825.22	9058.28
1824.4	8792.37
1823.59	8883.1
1822.78	9010.68
1821.96	8671.17
1821.15	8943.13
1820.33	8834.12
1819.52	9016.9
1818.71	8834.21
1817.89	9152.02
1817.08	9067.6
1816.26	9145.86
1815.45	8993.96
1814.63	9345.27
1813.82	8978.66
1813	8989.42
1812.19	9107.5
1811.37	9078.37
1810.56	9058.45
1809.74	9047.73
1808.93	8908.3
1808.11	8995.65
1807.29	9030.9
1806.48	8934.43
1805.66	9049.29
1804.84	8940.6
1804.03	8905.42
1803.21	8848.82
1802.39	9076.85
1801.58	8879.5
1800.76	8740.33
1799.94	9050.85
1799.13	8936.17
1798.31	8794.01
1797.49	8746.67
1796.67	9020.29
1795.85	8792.61
1795.04	9243.37
1794.22	9037.11
1793.4	9038.64
1792.58	8881.36
1791.76	9029.49
1790.94	9095.13
1790.12	9050.86
1789.3	9220.25
1788.49	8840.3
1787.67	8814.4
1786.85	9050.85
1786.03	9159.12
1785.21	9044.74
1784.39	9079.8
1783.57	9166.68
1782.75	9128.55
1781.93	8858.84
1781.11	9073.67
1780.29	9093.47
1779.46	9119.34
1778.64	9117.8
1777.82	9146.71
1777	9163.43
1776.18	9110.14
1775.36	9014.26
1774.54	9307.88
1773.72	9373.24
1772.89	9040.1
1772.07	9260.59
1771.25	9277.27
1770.43	9348.66
1769.6	9450.43
1768.78	9223.94
1767.96	9547.51
1767.14	9099.29
1766.31	9289.12
1765.49	9402.96
1764.67	9255.62
1763.84	9512.12
1763.02	9249.45
1762.2	9296.45
1761.37	9537.64
1760.55	9262.96
1759.72	9437.34
1758.9	9341.72
1758.08	9403.82
1757.25	9417.39
1756.43	9394.58
1755.6	9459.67
1754.78	9509.58
1753.95	9383.75
1753.13	9433.66
1752.3	9368.45
1751.48	9478.92
1750.65	9577.24
1749.82	9457.55
1749	9661.77
1748.17	9563.29
1747.35	9492.08
1746.52	9502.57
1745.69	9383
1744.87	9647.55
1744.04	9558.22
1743.21	9453.81
1742.39	9551.96
1741.56	9405.27
1740.73	9503.4
1739.9	9686.08
1739.08	9527.36
1738.25	9616.36
1737.42	9789.87
1736.59	9751.98
1735.76	9424.31
1734.94	9938.82
1734.11	9671.58
1733.28	9787.61
1732.45	9807.07
1731.62	9630.47
1730.79	9526.31
1729.96	9639.26
1729.13	9863.72
1728.3	9696.28
1727.47	9815.17
1726.64	9702.03
1725.81	9610.01
1724.98	9713.8
1724.15	9850.68
1723.32	9912.24
1722.49	9754.01
1721.66	9668.08
1720.83	9807.88
1720	9929.58
1719.17	9726.33
1718.34	9841.99
1717.51	9849.34
1716.68	9793.55
1715.85	9755.81
1715.01	9853.35
1714.18	10050
1713.35	9907.09
1712.52	9788.24
1711.69	9945.78
1710.85	9980.13
1710.02	9957.42
1709.19	9784.6
1708.36	9921.02
1707.52	9919.33
1706.69	10010.7
1705.86	9879.96
1705.02	10028.3
1704.19	10032.6
1703.36	9931.9
1702.52	9933.21
1701.69	10048.4
1700.85	9753
1700.02	10045
1699.18	10073.3
1698.35	10071.6
1697.52	10042.9
1696.68	10101.1
1695.85	9979.6
1695.01	10280.3
1694.18	10350.3
1693.34	10354.6
1692.5	10242.1
1691.67	10096.8
1690.83	10250.6
1690	10257.8
1689.16	10280
1688.32	10080.9
1687.49	10336.3
1686.65	10101.4
1685.82	10276
1684.98	10211.5
1684.14	10463.7
1683.3	10252.8
1682.47	10490
1681.63	10368.7
1680.79	10498.3
1679.95	10502.5
1679.12	10512.7
1678.28	10612.3
1677.44	10697
1676.6	10686.2
1675.76	10681.4
1674.93	10611
1674.09	10615.2
1673.25	10747.5
1672.41	10638.4
1671.57	10705.1
1670.73	10950.5
1669.89	10963.6
1669.05	10934.9
1668.21	10638.3
1667.37	10502.5
1666.53	11036.5
1665.69	10992.9
1664.85	10931.5
1664.01	11393.8
1663.17	11014.1
1662.33	10917
1661.49	10909.2
1660.65	11121.4
1659.81	11208.7
1658.97	11298.9
1658.13	11109.8
1657.28	11202.9
1656.44	11310.9
1655.6	11404
1654.76	11099.2
1653.92	11311.1
1653.07	11276.5
1652.23	11494.2
1651.39	11415.1
1650.55	11463.6
1649.7	11485.4
1648.86	11447.8
1648.02	11647.5
1647.17	11500.2
1646.33	11332.3
1645.49	11425.2
1644.64	11198
1643.8	11193.1
1642.96	11579.3
1642.11	11479.6
1641.27	11385.8
1640.42	11478.6
1639.58	11461.8
1638.73	11566.4
1637.89	11392.8
1637.04	11204.5
1636.2	11442.2
1635.35	11268.7
1634.51	11302.2
1633.66	11468.8
1632.82	11534.9
1631.97	11577.2
1631.13	11566.4
1630.28	11579.2
1629.43	11364.5
1628.59	11519.1
1627.74	11552.6
1626.89	11541.8
1626.05	11466
1625.2	11620.5
1624.35	11406
1623.5	11581.1
1622.66	11596.8
1621.81	11866.2
1620.96	11725.5
1620.11	11590.8
1619.27	11686.2
1618.42	11828.6
1617.57	11658.6
1616.72	11665.4
1615.87	11872.6
1615.02	11755.7
1614.18	11959.8
1613.33	11742.8
1612.48	11911.6
1611.63	11965.5
1610.78	12098.8
1609.93	12020.2
1609.08	12012.3
1608.23	11904.3
1607.38	11861.1
1606.53	12309
1605.68	12448
1604.83	12437.1
1603.98	12276.2
1603.13	12582.7
1602.28	12715.6
1601.42	12789.8
1600.57	13028.5
1599.72	13287.6
1598.87	13194.3
1598.02	13559
1597.17	13248.5
1596.31	13674.7
1595.46	13772.1
1594.61	13913.4
1593.76	14081.2
1592.91	14243
1592.05	14551.3
1591.2	15161.5
1590.35	15695.3
1589.49	16143.9
1588.64	16513.2
1587.79	17275
1586.93	18259.1
1586.08	19395.1
1585.23	21338.9
1584.37	23079.9
1583.52	25139.5
1582.66	27332.9
1581.81	30754.5
1580.96	33250.5
1580.1	36570.4
1579.25	38862.7
1578.39	40847.3
1577.54	42185
1576.68	42803.3
1575.82	42550.5
1574.97	41783.5
1574.11	40368.2
1573.26	39680.7
1572.4	37232.4
1571.55	35806.9
1570.69	33453.6
1569.83	31430.9
1568.98	29513.9
1568.12	27197.9
1567.26	25078.1
1566.4	23568.6
1565.55	21677.7
1564.69	20329.7
1563.83	18915.2
1562.98	18535.9
1562.12	17570.9
1561.26	16632.6
1560.4	16070.3
1559.54	15531.6
1558.68	15074.6
1557.83	14911.9
1556.97	14740.4
1556.11	14554.5
1555.25	14610.2
1554.39	14424.4
1553.53	14395.7
1552.67	14306
1551.81	14114.5
1550.95	13914.3
1550.09	13949.7
1549.23	14052
1548.37	13770.5
1547.51	13451.4
1546.65	13582.8
1545.79	13516.5
1544.93	13197.6
1544.07	13175
1543.21	13042.1
1542.35	12993.4
1541.49	12941.8
1540.62	13015
1539.76	13221.7
1538.9	13033.8
1538.04	12779.2
1537.18	12933.6
1536.31	12658.8
1535.45	12792.9
1534.59	12738.5
1533.73	12736.3
1532.86	12664.6
1532	12717.5
1531.14	12466.2
1530.27	12579.9
1529.41	12577.7
1528.55	12572.6
1527.68	12793.3
1526.82	12597.2
1525.96	12621.1
1525.09	12769.4
1524.23	12744
1523.36	12579.9
1522.5	12757
1521.63	12607.4
1520.77	12605.2
1519.9	12620.3
1519.04	12791.5
1518.17	12746
1517.31	12518.5
1516.44	12756
1515.58	12814.5
1514.71	12766.1
1513.84	12668.6
1512.98	12672.2
1512.11	12390.1
1511.24	12742.9
1510.38	12755.1
1509.51	12894.2
1508.64	12788.2
1507.78	12872.4
1506.91	12780.9
1506.04	12767.1
1505.17	12995.5
1504.31	12918.3
1503.44	12855.6
1502.57	12807.3
1501.7	13104.5
1500.83	12923.8
1499.97	12907.2
1499.1	12740.9
1498.23	12879.7
1497.36	12799.8
1496.49	12947.2
1495.62	12944.9
1494.75	12931.2
1493.88	12917.4
1493.01	12869.2
1492.14	13200.4
1491.27	13304.4
1490.4	13103.9
1489.53	13141.8
1488.66	13018.9
1487.79	12965
1486.92	13031.7
1486.05	13129.9
1485.18	13187.9
1484.31	13119.6
1483.44	13398.5
1482.56	13241.3
1481.69	13201.7
1480.82	13431.7
1479.95	13415.1
1479.08	13435.7
1478.2	13184
1477.33	13505.5
1476.46	13580.6
1475.59	13297.5
1474.71	13384
1473.84	13519.1
1472.97	13619.8
1472.09	13334.1
1471.22	13377.6
1470.35	13309.4
1469.47	13301.4
1468.6	13236.2
1467.72	13302.5
1466.85	13468.9
1465.98	13472.3
1465.1	13315.6
1464.23	13484.8
1463.35	13208.1
1462.48	13328.7
1461.6	13115
1460.73	13295.5
1459.85	13473.2
1458.98	13408
1458.1	13365.7
1457.22	13277.8
1456.35	13492.4
1455.47	13584.2
1454.6	13350.8
1453.72	13702.1
1452.84	13263.4
1451.97	13380.9
1451.09	13401.4
1450.21	13527.3
1449.33	13257.1
1448.46	13665.1
1447.58	13691.2
1446.7	13500.8
1445.82	13398.8
1444.95	13479.1
1444.07	13582.1
1443.19	13445.9
1442.31	13751
1441.43	13521
1440.55	13430.4
1439.67	13635.7
1438.8	13775.6
1437.92	13636.7
1437.04	13728.1
1436.16	13535.3
1435.28	13456.2
1434.4	13763.6
1433.52	13707.2
1432.64	13489
1431.76	13634.3
1430.88	13688.8
1430	13641
1429.12	13843
1428.23	13883.1
1427.35	13676.4
1426.47	13818.7
1425.59	13779.5
1424.71	14032.3
1423.83	13856.9
1422.95	14274.1
1422.06	13721.7
1421.18	14084.9
1420.3	13847.3
1419.42	13966.7
1418.53	13998.3
1417.65	13899.5
1416.77	13803.7
1415.89	14200.5
1415	13764.9
1414.12	13793.7
1413.23	14054.4
1412.35	14199.1
1411.47	13885.5
1410.58	14066.9
1409.7	14056
1408.82	14353.2
1407.93	14113.3
1407.05	14017.5
1406.16	14094.2
1405.28	13942
1404.39	14137.3
1403.51	14098.2
1402.62	14092.9
1401.74	14031.2
1400.85	13972.3
1399.96	14291.6
1399.08	14370.9
1398.19	14376.9
1397.31	14498.5
1396.42	14569.3
1395.53	14346.8
1394.65	14493.7
1393.76	14324.9
1392.87	14401.3
1391.98	14421.4
1391.1	14655.5
1390.21	14447.3
1389.32	14599.7
1388.43	14650.7
1387.55	14338.4
1386.66	14490.7
1385.77	14389.7
1384.88	14432.2
1383.99	14407.2
1383.1	14123.4
1382.21	14480.9
1381.33	14326.6
1380.44	14239.7
1379.55	14237.3
1378.66	14333.1
1377.77	14490.8
1376.88	14513.6
1375.99	14381.8
1375.1	14421.5
1374.21	14553.7
1373.32	14528.7
1372.43	14408.3
1371.54	14349.7
1370.64	14608.1
1369.75	14639.2
1368.86	14490.8
1367.97	14289.2
1367.08	14393.2
1366.19	14828.1
1365.3	14601.3
1364.4	14797.7
1363.51	14711
1362.62	14509.6
1361.73	14627.5
1360.83	14818.2
1359.94	14742.8
1359.05	14653.4
1358.15	14667.7
1357.26	14774.3
1356.37	14771.7
1355.47	14802.7
1354.58	14612.7
1353.69	14573.8
1352.79	14806.1
1351.9	14817.5
1351	14568.9
1350.11	14745.2
1349.21	14832.1
1348.32	14706.6
1347.43	14754.3
1346.53	14721
1345.63	14643
1344.74	14782.9
1343.84	14908.7
1342.95	14880.9
1342.05	14624.4
1341.16	14652.6
1340.26	14725.3
1339.36	14853.8
1338.47	14647.7
1337.57	14692.5
1336.67	14698.3
1335.78	14946.6
1334.88	14893.8
1333.98	14902.3
1333.08	14724.2
1332.19	14760.6
1331.29	14811
1330.39	14530
1329.49	14947.8
1328.59	14733.6
1327.7	14937
1326.8	14889.8
1325.9	14781.5
1325	14940.3
1324.1	14857
1323.2	14595.8
1322.3	14862.9
1321.4	14879.8
1320.5	14754.9
1319.6	14735.7
1318.7	14905.3
1317.8	14630.5
1316.9	14941.7
1316	14825.3
1315.1	14850.5
1314.2	15092.1
1313.3	14792.5
1312.4	14717.8
1311.5	14865
1310.6	14912.3
1309.69	14992.9
1308.79	14704.7
1307.89	14882.3
1306.99	14996.1
1306.09	14974.1
1305.18	14869
1304.28	15232
1303.38	15162.9
1302.48	15077.1
1301.57	15088.3
1300.67	15141
1299.77	15384.7
1298.86	15362.6
1297.96	15534.2
1297.05	15293.6
1296.15	15279.9
1295.25	15324.2
1294.34	15376.8
1293.44	15291.2
1292.53	15108.9
1291.63	15142.2
1290.72	14885.3
1289.82	15081.6
1288.91	15067.9
1288.01	14910.6
1287.1	14839
1286.2	15071
1285.29	15060.1
1284.38	15005
1283.48	15030
1282.57	14632.9
1281.67	14892.3
1280.76	15171
1279.85	15055.3
1278.95	15041.6
1278.04	15198.8
1277.13	15127.3
1276.22	15273.4
1275.32	15174.3
1274.41	15281.8
1273.5	15279.1
1272.59	15463.6
1271.68	15507.7
1270.78	15551.7
1269.87	15606.8
1268.96	15813.1
1268.05	15901.1
1267.14	16016.6
1266.23	16126.5
1265.32	16186.9
1264.41	15966.9
1263.5	16032.8
1262.59	16095.9
1261.68	16076.6
1260.77	16266.1
1259.86	16329.1
1258.95	16183.5
1258.04	16293.2
1257.13	16057
1256.22	16122.8
1255.31	16067.8
1254.4	15766
1253.48	15990.9
1252.57	15801.6
1251.66	16015.4
1250.75	15478
1249.84	15782.3
1248.93	15672.6
1248.01	15642.5
1247.1	15721.9
1246.19	15297.3
1245.27	15557.5
1244.36	15664.3
1243.45	15543.8
1242.53	15401.5
1241.62	15478.2
1240.71	15801
1239.79	15352.3
1238.88	15628.6
1237.97	15418
1237.05	15519.2
1236.14	15560.2
1235.22	15549.3
1234.31	15237.7
1233.39	15541.1
1232.48	15571.1
1231.56	15382.6
1230.65	15672.1
1229.73	15633.9
1228.81	15516.5
1227.9	15445.5
1226.98	15475.5
1226.07	15322.7
1225.15	15685.6
1224.23	15832.8
1223.32	15655.5
1222.4	15279.2
1221.48	15453.7
1220.57	15791.7
1219.65	15410.1
1218.73	15579
1217.81	15540.9
1216.89	15519.1
1215.98	15873.1
1215.06	15660.6
1214.14	15576.2
1213.22	15744.9
1212.3	15540.8
1211.38	15649.6
1210.46	15823.6
1209.55	15529.8
1208.63	15633.1
1207.71	15834.3
1206.79	15641.2
1205.87	15595
1204.95	15600.4
1204.03	15543.3
1203.11	16015.9
1202.19	15727.9
1201.27	15879.9
1200.34	15399.3
1199.42	15849.9
1198.5	15819.9
1197.58	15909.4
1196.66	15781.8
1195.74	16034
1194.82	16012.1
1193.89	15903.6
1192.97	16150.2
1192.05	16372.3
1191.13	17166.2
1190.2	17239
1189.28	17669.5
1188.36	18305.6
1187.44	18909
1186.51	19539.3
1185.59	20274.9
1184.67	20655.7
1183.74	21323.2
1182.82	21763.2
1181.89	21973.1
1180.97	21812.3
1180.05	21392
1179.12	20942.1
1178.2	20167.9
1177.27	19915.6
1176.35	19290.5
1175.42	18619.7
1174.5	17959.9
1173.57	17629.9
1172.64	17040.8
1171.72	16692.1
1170.79	16502.9
1169.87	16300.3
1168.94	16138.1
1168.01	16032.8
1167.09	16191.8
1166.16	16261.7
1165.23	16129.4
1164.31	16037.6
1163.38	16096.8
1162.45	16199
1161.52	16072.2
1160.59	16125.9
1159.67	15859.1
1158.74	16079.8
1157.81	16101.2
1156.88	16163
1155.95	16065.9
1155.02	16089.9
1154.1	16149
1153.17	16261.8
1152.24	16097.5
1151.31	16465.8
1150.38	16191.3
1149.45	16551.4
1148.52	16570
1147.59	16655.8
1146.66	16252.4
1145.73	16510.1
1144.8	16773.1
1143.87	16998.5
1142.93	16659.8
1142	17046.1
1141.07	17196.1
1140.14	17244.1
1139.21	17104.2
1138.28	17119.9
1137.35	17342.2
1136.41	17717.3
1135.48	17834.8
1134.55	17603.7
1133.62	17796.3
1132.68	17972.7
1131.75	18076.7
1130.82	18135.1
1129.88	17939
1128.95	18610.7
1128.02	18529.8
1127.08	18341.8
1126.15	18900.6
1125.21	19041.8
1124.28	18896.6
1123.35	19401.6
1122.41	19534.5
1121.48	19410.7
1120.54	20067.7
1119.61	20229.9
1118.67	20170.2
1117.74	20540.7
1116.8	20456.9
1115.86	20554.8
1114.93	20735.5
1113.99	20857.3
1113.06	20976.4
1112.12	21447.9
1111.18	21310.6
1110.25	21659.1
1109.31	21895.4
1108.37	22694.5
1107.43	22218.3
1106.5	22801.1
1105.56	23300.9
1104.62	23328.8
1103.68	23823.1
1102.75	24231.9
1101.81	24693.9
1100.87	25334.1
1099.93	25878.3
1098.99	26411.6
1098.05	26875.5
1097.11	27158.2
1096.17	27563.3
1095.23	27853.8
1094.29	27902
1093.35	27737.4
1092.41	28171.4
1091.47	28331.2
1090.53	29163.7
1089.59	30697.6
1088.65	32837
1087.71	35352.9
1086.77	39137.9
1085.83	43041.1
1084.89	48180.6
1083.95	54239.7
1083.01	60211.6
1082.06	65982.3
1081.12	70325.8
1080.18	73508.1
1079.24	75890.7
1078.3	76497.9
1077.35	76022.8
1076.41	74065.6
1075.47	71334.9
1074.52	67401.8
1073.58	62131.8
1072.64	57571.1
1071.69	51711.2
1070.75	47138.1
1069.81	41427.8
1068.86	37443.4
1067.92	33688
1066.97	30460.7
1066.03	28041.7
1065.08	26261.3
1064.14	24923.2
1063.19	23702.1
1062.25	22610.9
1061.3	21620.7
1060.36	21201.8
1059.41	20693.1
1058.46	20409.3
1057.52	20405.7
1056.57	19876.3
1055.63	19510.9
1054.68	19327.9
1053.73	18957.4
1052.78	19051.7
1051.84	18565.3
1050.89	17970.9
1049.94	18302.7
1049	17988.2
1048.05	17813.5
1047.1	17620.5
1046.15	17751.8
1045.2	17740.7
1044.25	17595.2
1043.31	17463
1042.36	17467.8
1041.41	17551.6
1040.46	17348.3
1039.51	17432.1
1038.56	17226.2
1037.61	17238.9
1036.66	17112.2
1035.71	17114.4
1034.76	16921.9
1033.81	17181.9
1032.86	17084.1
1031.91	16925.9
1030.96	17275.2
1030.01	16864.7
1029.05	16966.8
1028.1	16948
1027.15	17057.9
1026.2	16999.7
1025.25	16899.5
1024.3	16757.3
1023.34	16743.8
1022.39	16992.8
1021.44	16858.5
1020.48	16960.5
1019.53	17306.4
1018.58	17245.6
1017.63	17022.2
1016.67	17462.2
1015.72	17267.7
1014.76	17545.1
1013.81	18076.6
1012.86	17905.6
1011.9	17630
1010.95	17464.4
1009.99	17338.2
1009.04	17348.2
1008.08	17169.7
1007.13	16978.2
1006.17	16744.9
1005.22	16898.9
1004.26	16642.1
1003.31	16783
1002.35	16795.6
1001.39	16722
1000.44	16996.1
999.48	16682.1
998.523	16600.7
997.566	16767.5
996.609	16845.5
995.652	16892.1
994.695	16849.9
993.737	16797.3
992.779	16635
991.821	16673.8
990.863	16694.3
989.905	16662.6
988.947	16711.8
987.988	16839.2
987.029	16557.2
986.07	16622
985.111	16783.2
984.152	16605.6
983.192	16803.2
982.233	16688.2
981.273	16763.3
980.313	16729.1
979.352	16710.5
978.392	16902.7
977.432	16657.6
976.471	17008.5
975.51	16703.7
974.549	16669.4
973.588	16760.1
972.626	16744.1
971.665	16759.3
970.703	16797.8
969.741	17093.7
968.779	17090.6
967.817	17074.6
966.854	16902.7
965.892	17050.3
964.929	17000.4
963.966	16974
963.003	17017.7
962.04	17144.4
961.076	16970.1
960.113	17096.7
959.149	16961.4
958.185	16922
957.221	17227.5
956.256	17066.3
955.292	16907.7
954.327	17187.1
953.362	17140
952.397	17364.9
951.432	17001.7
950.467	17117.8
949.501	17156.1
948.536	17474.1
947.57	17165.5
946.604	17234.9
945.637	17019.6
944.671	17430.4
943.704	17065.2
942.738	17116.4
941.771	16991.8
940.804	17420.5
939.836	17205.4
938.869	16962
937.901	17155.3
936.933	17110.9
935.965	17120.7
934.997	17091.8
934.029	17210
933.06	17134.7
932.092	17255.5
931.123	17203.3
930.154	17138.3
929.185	16828.3
928.215	17052.2
927.246	16964
926.276	17136.3
925.306	17259.5
924.336	17150.7
923.366	16864.2
922.395	16992.5
921.425	17440.2
920.454	17089.4
919.483	16916.4
918.512	17008.6
917.541	16843.4
916.569	16842.9
915.597	16968.5
914.626	17037.5
913.654	17145
912.681	17175.3
911.709	17018
910.736	16793.8
909.764	16939.9
908.791	17026.7
907.818	17221.5
906.845	17354.5
905.871	16961
904.898	16865.5
903.924	17304.1
902.95	17039.1
901.976	17143.8
901.002	17117.6
900.027	16899
899.052	17165.3
898.078	17328.9
897.103	17028.3
896.127	17297
895.152	17314.4
894.177	17152.4
893.201	17110.8
892.225	17179.5
891.249	17073.9
890.273	17380.7
889.296	17147.1
888.32	17254.1
887.343	17673.3
886.366	17263.2
885.389	17150.1
884.412	17221.2
883.434	17187.4
882.457	17368.4
881.479	17209.3
880.501	17410.7
879.523	17295
878.544	17488.7
877.566	17161
876.587	17201.4
875.608	17234
874.629	17210.5
873.65	17268.6
872.67	17395.7
871.691	17418
870.711	17437.9
869.731	17626
868.751	17607.5
867.771	17357
866.79	17277.3
865.81	17391.5
864.829	17385.8
863.848	17410.7
862.867	17341.3
861.885	17656.6
860.904	17526
859.922	17522.8
858.94	17456
857.958	17575
856.976	17638
855.993	17693.4
855.011	17596
854.028	17732.7
853.045	17749.9
852.062	17632.2
851.078	17753.6
850.095	17625.8
849.111	17503.2
848.127	17528
847.143	17931.3
846.159	17389.5
845.175	17612.4
844.19	17748.9
843.205	17798.9
842.221	17686.6
841.235	18036.1
840.25	17713.1
839.265	17994.1
838.279	18097.3
837.293	18043.3
836.307	17875.2
835.321	18188.9
834.335	18368.1
833.348	17667.8
832.361	18110.6
831.375	18294.7
830.387	18293.9
829.4	18133.6
828.413	18317.7
827.425	17932.1
826.437	18141.5
825.449	18085
824.461	18332.2
823.473	18242.9
822.484	18249.7
821.496	18302
820.507	18270.9
819.518	18012.2
818.529	18001.4
817.539	18258.4
816.55	18136.3
815.56	18135.5
814.57	18359.5
813.58	18060.8
812.589	18007
811.599	17986.1
810.608	17947.5
809.617	17686.8
808.626	18248.7
807.635	18159.6
806.644	18138.7
805.652	18130.3
804.66	18215.3
803.669	18033
802.676	18027.2
801.684	17940.8
800.692	18227.2
799.699	17795.7
798.706	17777.4
797.713	17759
796.72	17916.9
795.727	18067.2
794.733	17965.7
793.739	17846.7
792.745	18198.2
791.751	18126.9
790.757	17942.6
789.763	18208.3
788.768	18096.9
787.773	18071
786.778	18160.7
785.783	18084.5
784.787	18257
783.792	18100.5
782.796	18139.9
781.8	18488.1
780.804	18050.5
779.808	18396
778.811	18199.5
777.815	18248.8
776.818	18105.1
775.821	18179.5
774.824	18534.7
773.826	18368.4
772.829	18490.3
771.831	18263.9
770.833	18533.7
769.835	18407.6
768.837	18218.9
767.838	18501
766.84	18282.3
765.841	18211.4
764.842	18475.9
763.843	18460
762.843	18414.1
761.844	18593.3
760.844	18572.4
759.844	18446.5
758.844	18725.6
757.844	18752.2
756.843	19053.6
755.843	19027.7
754.842	19521.3
753.841	19847.4
752.84	20393.1
751.838	21011
750.837	22322.6
749.835	23838.4
748.833	24752.3
747.831	25945.2
746.829	27746.3
745.826	29120.4
744.823	30356.7
743.821	31221.2
742.818	31596.9
741.814	30980.5
740.811	29955.8
739.807	28764.6
738.804	27063.2
737.8	25332.6
736.796	23712.1
735.791	22246.6
734.787	20970.7
733.782	20230.3
732.777	20020.1
731.772	19315
730.767	18940.9
729.762	18813.1
728.756	18854.4
727.75	18865.9
726.744	19019
725.738	18367
724.732	18470.5
723.725	18464.6
722.719	18605.3
721.712	18475.3
720.705	18846.7
719.697	18883
718.69	18621.4
717.682	18905.8
716.674	19175.3
715.666	19104.8
714.658	19225.3
713.65	19338.3
712.641	19619.8
711.633	19430.3
710.624	19748.9
709.615	19505
708.605	19476.6
707.596	19485.4
706.586	19991.9
705.576	19220.8
704.566	19321.3
703.556	19302.9
702.546	18970.3
701.535	19310.6
700.524	18849.5
699.513	19021.6
698.502	18790.7
697.491	18967.7
696.479	18986.5
695.468	19020.1
694.456	18984.4
693.444	18934
692.432	18789.8
691.419	18766.6
690.406	18948.3
689.394	18922.6
688.381	18761.2
687.367	18994.6
686.354	18655.6
685.341	19024.7
684.327	18616.7
683.313	18667.5
682.299	19107.9
681.284	18643.4
680.27	18787.9
679.255	18892.8
678.24	18842.6
677.225	18804.6
676.21	18788.9
675.195	18775.6
674.179	18789.3
673.163	18950.8
672.147	18627.4
671.131	18906.9
670.115	18901
669.098	19040.1
668.082	18576.8
667.065	18750.4
666.048	18865
665.03	18797.6
664.013	18636.9
662.995	18800.5
661.977	18848.6
660.959	18933.6
659.941	18696.9
658.923	18754.8
657.904	18906
656.885	18865.7
655.866	18845
654.847	18839.1
653.828	19039.2
652.808	18935.2
651.789	18939
650.769	18813
649.749	18910
648.728	18923.7
647.708	18802.6
646.687	19100.4
645.666	18656.1
644.645	18993
643.624	19060.5
642.603	19118.2
641.581	19141.6
640.559	18957
639.537	19318
638.515	19392.7
637.493	19716.8
636.47	20104.4
635.448	21071.1
634.425	22137.7
633.402	23800.1
632.378	25317.8
631.355	25667.3
630.331	25833.5
629.307	24346.6
628.283	22840.7
627.259	21564.9
626.235	20575
625.21	20293
624.185	20050.2
623.16	19417.2
622.135	19494.1
621.11	19434.5
620.084	19445.5
619.058	19522.3
618.032	19345.7
617.006	19493.2
615.98	19689.4
614.953	19249.8
613.927	19365.5
612.9	19768.5
611.873	19370.6
610.845	19106.6
609.818	19431.6
608.79	19303.9
607.763	19207.9
606.735	19520.5
605.706	19487.7
604.678	19513.3
603.649	19407.6
602.621	19554.7
601.592	19475.8
600.562	19372.6
599.533	19475.9
598.504	19727.2
597.474	19347.3
596.444	19707.8
595.414	19539.1
594.383	19358.4
593.353	19553.7
592.322	19411.9
591.291	19364.6
590.26	19341.7
589.229	19493.2
588.198	19404.8
587.166	19473.9
586.134	19378.2
585.102	19524.9
584.07	19492.2
583.038	19624.2
582.005	19744
580.972	19609.7
579.939	19734.3
578.906	19551.6
577.873	19475.4
576.839	19648.4
575.805	19654.4
574.771	19421.1
573.737	19886.5
572.703	19522.6
571.669	19893.6
570.634	19793.3
569.599	20176.1
568.564	20179.6
567.529	20219.4
566.493	20259.1
565.457	20214.3
564.422	20345.7
563.386	20170.6
562.349	20345.4
561.313	20515.3
560.276	20735.8
559.24	20392
558.203	20426.8
557.165	20435.1
556.128	20587.9
555.09	20576.9
554.053	20421.3
553.015	20335.6
551.977	20394.5
550.938	20544.8
549.9	20603.5
548.861	20491.4
547.822	20514.1
546.783	20707.6
545.744	20379
544.704	20459.4
543.664	20429.1
542.625	20408.5
541.584	20039.4
540.544	20112.6
539.504	20024.7
538.463	19891.3
537.422	20257.5
536.381	20200.9
535.34	20122.7
534.298	19941.4
533.257	20228.1
532.215	20241.1
531.173	20527.7
530.131	20615
529.088	20340.2
528.046	20197.3
527.003	20229.5
525.96	20499
524.917	20186.1
523.874	20628
522.83	20303.1
521.786	20318.5
520.742	20369.8
519.698	20497.7
518.654	20618.4
517.609	20243.6
516.565	20237.4
515.52	20276.8
514.475	20452.4
513.429	20374.4
512.384	20516.5
511.338	20350.1
510.292	20078.6
509.246	20490.7
508.2	20243.2
507.153	20256.2
506.107	20333.6
505.06	20239.1
504.013	20326.1
502.966	20255.4
501.918	20246.9
500.87	20061.8
499.823	19953.1
498.775	20347.7
497.726	20191.3
496.678	20082.6
495.629	20043.1
494.58	19984.6
493.531	20200.1
492.482	19898.5
491.433	20061.5
490.383	20103.1
489.334	20035
488.284	20224.2
487.233	20077.6
486.183	20007.2
485.132	19844
484.082	20125.8
483.031	19979.3
481.98	19928.1
480.928	20295.3
479.877	19899.2
478.825	20028.6
477.773	19758.7
476.721	19850.1
475.668	19865.4
474.616	19742.9
473.563	20204.7
472.51	19766.4
471.457	19803.1
470.404	20108
469.35	20118.5
468.297	20081.5
467.243	19914.1
466.189	19936.4
465.134	20288.4
464.08	20059.4
463.025	20103.1
461.97	20156.2
460.915	20143
459.86	20113.1
458.804	20322.6
457.749	20477.4
456.693	20194.2
455.637	20704.2
454.581	20399.7
453.524	20500
452.467	20858.2
451.411	20568.1
450.354	20703.8
449.296	20775.6
448.239	20960.8
447.181	20954.5
446.123	20915.2
445.065	21074.3
444.007	21195.6
442.949	21257.7
441.89	21152.2
440.831	21103.4
439.772	21278.9
438.713	21187.6
437.653	21119.9
436.594	21141.9
435.534	21142.7
434.474	21150.5
433.414	21271.5
432.353	21288.8
431.293	21166.9
430.232	21132.4
429.171	21149.6
428.11	21126.8
427.048	21280.7
425.987	21465.1
424.925	20879.5
423.863	21252.2
422.801	21114.1
421.738	21404.3
420.676	21179.1
419.613	21396.3
418.55	21441.7
417.487	21195.5
416.423	21280.8
415.36	21474.3
414.296	21465.6
413.232	21590.8
412.168	21431.7
411.103	21718.9
410.039	21468.3
408.974	21736.6
407.909	21925
406.844	22219
405.778	21954.4
404.713	21741.5
403.647	21828.9
402.581	21543.4
401.515	21534.6
400.448	21755.7
399.382	21768
398.315	21447.5
397.248	21228
396.181	21238
395.113	21175.5
394.046	21417.4
392.978	20837.4
391.91	20873.3
390.842	20860
389.773	20872.5
388.705	20763.3
387.636	20696.3
386.567	20816.3
385.498	21004.2
384.429	20722
383.359	20727.5
382.289	20861.5
381.219	20434.7
380.149	20741.5
379.079	20571.8
378.008	20827.1
376.937	20795.2
375.866	20707.3
374.795	20831.8
373.724	20662.2
372.652	21036.2
371.58	20521.5
370.508	20690.2
369.436	20795.9
368.364	20785
367.291	20697.2
366.218	20926.3
365.145	20808.2
364.072	20743.7
362.998	20856.3
361.925	20605.5
360.851	20343.2
359.777	20465.1
358.703	20633.5
357.628	20755.3
356.554	20669.9
355.479	20577.7
354.404	20680.8
353.329	20923.3
352.253	20949.6
351.178	20576.1
350.102	20955.7
349.026	20893.7
347.949	20901.3
346.873	20906.7
345.796	21153.6
344.719	21021.9
343.642	20973.8
342.565	20925.8
341.488	21160.8
340.41	21221.8
339.332	20777.1
338.254	21313.5
337.176	21342
336.097	21456.2
335.019	21614.4
333.94	21279
332.861	21696.6
331.781	21671.7
330.702	21998.8
329.622	21797.8
328.542	21610.8
327.462	21854.4
326.382	21929
325.301	22019.7
324.221	22105.8
323.14	22171
322.059	22428.1
320.977	22652.8
319.896	22239.4
318.814	22318.4
317.732	22508.2
316.65	22582.6
315.568	22696.1
314.485	22456.3
313.402	22389.7
312.319	22307
311.236	22526.6
310.153	22492.4
309.069	22472
307.985	22587.7
306.901	22514.3
305.817	22546.9
304.733	22699.4
303.648	22137.3
302.564	22315.2
301.479	22506.9
300.393	21986.6
299.308	22403.9
298.222	22339.8
297.136	22213.6
296.05	22181.8
294.964	22274.2
293.878	21982.4
292.791	21897.7
291.704	22224.8
290.617	22025.1
289.53	21924.4
288.443	22062.8
287.355	22152.9
286.267	22249.8
285.179	22289.2
284.091	22287.3
283.002	22563.3
281.913	22301.9
280.824	22435.4
279.735	22323.3
278.646	22406.3
277.557	22638.4
276.467	22666.2
275.377	22733
274.287	22510.9
273.196	22648.8
272.106	22935.6
271.015	22617.3
269.924	22844.5
268.833	23002.8
267.742	23062.6
266.65	22682.6
265.558	22907.3
264.466	23086.1
263.374	23049.7
262.282	23040.8
261.189	23045.6
260.096	22853.6
259.003	23091.7
257.91	22883.8
256.816	22616.6
255.723	22776.9
254.629	22884.6
253.535	22873.4
252.441	22597.2
251.346	22698
250.251	22547.5
249.157	22458.7
248.061	22164.6
246.966	22206
245.871	22007.8
244.775	21882.7
243.679	21618.5
242.583	21527.8
241.486	21516.8
240.39	21672.4
239.293	21362.8
238.196	21233.4
237.099	21288.6
236.002	21318.8
234.904	21271.4
233.806	21278.8
232.708	21336.2
231.61	21616.7
230.511	21275.8
229.413	21139.8
228.314	21442.9
227.215	21443.4
226.116	21273.3
225.016	21642.2
223.917	21394.8
222.817	21454.4
221.717	21588.9
220.616	21473.5
219.516	21742
218.415	21840.1
217.314	21704.3
216.213	21943.1
215.112	21602.9
214.01	21986.9
212.908	21896.5
211.806	21912.8
210.704	21974.4
209.602	21820.5
208.499	22013.7
207.396	22342.7
206.293	22082.4
205.19	22402.2
204.086	22477.2
202.983	22244.2
201.879	22335.1
200.775	22484.8
199.671	22387.7
198.566	22618.9
197.461	22732.2
196.356	22508.4
195.251	22569.8
194.146	22748.7
193.04	22687.8
191.935	22697.1
190.829	22459.9
189.723	22738.1
188.616	22932.7
187.51	22917
186.403	23179.2
185.296	22953.4
184.188	23515.8
183.081	23202.1
181.973	23439.1
180.865	23434.7
179.757	23662.6
178.649	23502.5
177.541	23944.5
176.432	24129.4
175.323	24226.2
174.214	24519.1
173.104	24451.4
171.995	24881.6
170.885	24856.6
169.775	24892.4
168.665	24885.4
167.555	24801.8
166.444	24821.9
165.333	24956.7
164.222	24481.6
163.111	24602.9
161.999	24740
160.888	24501.4
159.776	24663.1
158.664	24496.5
157.551	24309.8
156.439	24359.1
155.326	24266.8
154.213	24592.4
153.1	24605.7
151.987	24632.4
150.873	24742.2
149.759	25110.1
148.645	25605.7
147.531	25596.4
146.417	25555.6
145.302	25779.5
144.187	25915.8
143.072	26348.1
141.957	26769
140.841	26914
139.726	27110.5
138.61	27475
137.494	27445.1
136.377	27858.6
135.261	27846.6
134.144	28217.4
133.027	28601.4
131.91	28437.1
130.792	28948.5
129.675	29354.5
128.557	29424.9
127.439	29710
126.32	29963.7
125.202	30458.6
124.083	30765.6
122.964	31443.5
121.845	31806
120.726	32041.2
119.606	32722.8
118.487	32959.9
117.367	33679.1
116.246	34092.2
115.126	34462.8
114.005	34982.7
112.884	35065.2
111.763	35553.6
110.642	35622.6
109.521	35985.8
108.399	36215.1
107.277	35833.9
106.155	35771.3
105.033	35428.1
103.91	34610.7
102.787	34374.7
101.664	33896.2
100.541	33400
