4001.37,0
4000.9,0
4000.42,0
3999.94,0
3999.47,0
3998.99,0
3998.51,0
3998.04,0
3997.56,0
3997.08,0
3996.6,0
3996.13,0
3995.65,0
3995.17,0
3994.7,0
3994.22,0
3993.74,0
3993.26,0
3992.79,0
3992.31,0
3991.83,0
3991.35,0
3990.88,0
3990.4,0
3989.92,0
3989.44,0
3988.96,0
3988.49,0
3988.01,0
3987.53,0
3987.05,0
3986.57,0
3986.09,0
3985.61,0
3985.14,0
3984.66,0
3984.18,0
3983.7,0
3983.22,0
3982.74,0
3982.26,0
3981.78,0
3981.3,0
3980.83,0
3980.35,0
3979.87,0
3979.39,0
3978.91,0
3978.43,0
3977.95,0
3977.47,0
3976.99,0
3976.51,0
3976.03,0
3975.55,0
3975.07,0
3974.59,0
3974.11,0
3973.63,0
3973.15,0
3972.67,0
3972.19,0
3971.71,0
3971.23,0
3970.74,0
3970.26,0
3969.78,0
3969.3,0
3968.82,0
3968.34,0
3967.86,0
3967.38,0
3966.9,0
3966.42,0
3965.93,0
3965.45,0
3964.97,0
3964.49,0
3964.01,0
3963.53,0
3963.04,0
3962.56,0
3962.08,0
3961.6,0
3961.12,0
3960.63,0
3960.15,0
3959.67,0
3959.19,0
3958.71,0
3958.22,0
3957.74,0
3957.26,0
3956.77,0
3956.29,0
3955.81,0
3955.33,0
3954.84,0
3954.36,0
3953.88,0
3953.39,0
3952.91,0
3952.43,0
3951.94,0
3951.46,0
3950.98,0
3950.49,0
3950.01,0
3949.53,0
3949.04,0
3948.56,0
3948.07,0
3947.59,0
3947.11,0
3946.62,0
3946.14,0
3945.65,0
3945.17,0
3944.69,0
3944.2,0
3943.72,0
3943.23,0
3942.75,0
3942.26,0
3941.78,0
3941.29,0
3940.81,0
3940.32,0
3939.84,0
3939.35,0
3938.87,0
3938.38,0
3937.9,0
3937.41,0
3936.93,0
3936.44,0
3935.95,0
3935.47,0
3934.98,0
3934.5,0
3934.01,0
3933.52,0
3933.04,0
3932.55,0
3932.07,0
3931.58,0
3931.09,0
3930.61,0
3930.12,0
3929.63,0
3929.15,0
3928.66,0
3928.17,0
3927.69,0
3927.2,0
3926.71,0
3926.23,0
3925.74,0
3925.25,0
3924.76,0
3924.28,0
3923.79,0
3923.3,0
3922.81,0
3922.33,0
3921.84,0
3921.35,0
3920.86,0
3920.38,0
3919.89,0
3919.4,0
3918.91,0
3918.42,0
3917.94,0
3917.45,0
3916.96,0
3916.47,0
3915.98,0
3915.49,0
3915,0
3914.52,0
3914.03,0
3913.54,0
3913.05,0
3912.56,0
3912.07,0
3911.58,0
3911.09,0
3910.6,0
3910.11,0
3909.62,0
3909.14,0
3908.65,0
3908.16,0
3907.67,0
3907.18,0
3906.69,0
3906.2,0
3905.71,0
3905.22,0
3904.73,0
3904.24,0
3903.75,0
3903.26,0
3902.77,0
3902.27,0
3901.78,0
3901.29,0
3900.8,0
3900.31,0
3899.82,0
3899.33,0
3898.84,0
3898.35,0
3897.86,0
3897.37,0
3896.87,0
3896.38,0
3895.89,0
3895.4,0
3894.91,0
3894.42,0
3893.93,0
3893.43,0
3892.94,0
3892.45,0
3891.96,0
3891.47,0
3890.97,0
3890.48,0
3889.99,0
3889.5,0
3889.01,0
3888.51,0
3888.02,0
3887.53,0
3887.03,0
3886.54,0
3886.05,0
3885.56,0
3885.06,0
3884.57,0
3884.08,0
3883.58,0
3883.09,0
3882.6,0
3882.1,0
3881.61,0
3881.12,0
3880.62,0
3880.13,0
3879.64,0
3879.14,0
3878.65,0
3878.15,0
3877.66,0
3877.17,0
3876.67,0
3876.18,0
3875.68,0
3875.19,0
3874.7,0
3874.2,0
3873.71,0
3873.21,0
3872.72,0
3872.22,0
3871.73,0
3871.23,0
3870.74,0
3870.24,0
3869.75,0
3869.25,0
3868.76,0
3868.26,0
3867.77,0
3867.27,0
3866.77,0
3866.28,0
3865.78,0
3865.29,0
3864.79,0
3864.3,0
3863.8,0
3863.3,0
3862.81,0
3862.31,0
3861.81,0
3861.32,0
3860.82,0
3860.33,0
3859.83,0
3859.33,0
3858.84,0
3858.34,0
3857.84,0
3857.35,0
3856.85,0
3856.35,0
3855.85,0
3855.36,0
3854.86,0
3854.36,0
3853.86,0
3853.37,0
3852.87,0
3852.37,0
3851.87,0
3851.38,0
3850.88,0
3850.38,0
3849.88,0
3849.38,0
3848.89,0
3848.39,0
3847.89,0
3847.39,0
3846.89,0
3846.39,0
3845.9,0
3845.4,0
3844.9,0
3844.4,0
3843.9,0
3843.4,0
3842.9,0
3842.4,0
3841.91,0
3841.41,0
3840.91,0
3840.41,0
3839.91,0
3839.41,0
3838.91,0
3838.41,0
3837.91,0
3837.41,0
3836.91,0
3836.41,0
3835.91,0
3835.41,0
3834.91,0
3834.41,0
3833.91,0
3833.41,0
3832.91,0
3832.41,0
3831.91,0
3831.41,0
3830.91,0
3830.4,0
3829.9,0
3829.4,0
3828.9,0
3828.4,0
3827.9,0
3827.4,0
3826.9,0
3826.4,0
3825.89,0
3825.39,0
3824.89,0
3824.39,0
3823.89,0
3823.39,0
3822.88,0
3822.38,0
3821.88,0
3821.38,0
3820.88,0
3820.37,0
3819.87,0
3819.37,0
3818.87,0
3818.36,0
3817.86,0
3817.36,0
3816.86,0
3816.35,0
3815.85,0
3815.35,0
3814.84,0
3814.34,0
3813.84,0
3813.33,0
3812.83,0
3812.33,0
3811.82,0
3811.32,0
3810.82,0
3810.31,0
3809.81,0
3809.31,0
3808.8,0
3808.3,0
3807.79,0
3807.29,0
3806.79,0
3806.28,0
3805.78,0
3805.27,0
3804.77,0
3804.26,0
3803.76,0
3803.25,0
3802.75,0
3802.24,0
3801.74,0
3801.23,0
3800.73,0
3800.22,0
3799.72,0
3799.21,0
3798.71,0
3798.2,0
3797.7,0
3797.19,0
3796.69,0
3796.18,0
3795.67,0
3795.17,0
3794.66,0
3794.16,0
3793.65,0
3793.14,0
3792.64,0
3792.13,0
3791.63,0
3791.12,0
3790.61,0
3790.11,0
3789.6,0
3789.09,0
3788.59,0
3788.08,0
3787.57,0
3787.06,0
3786.56,0
3786.05,0
3785.54,0
3785.04,0
3784.53,0
3784.02,0
3783.51,0
3783.01,0
3782.5,0
3781.99,0
3781.48,0
3780.97,0
3780.47,0
3779.96,0
3779.45,0
3778.94,0
3778.43,0
3777.93,0
3777.42,0
3776.91,0
3776.4,0
3775.89,0
3775.38,0
3774.87,0
3774.36,0
3773.86,0
3773.35,0
3772.84,0
3772.33,0
3771.82,0
3771.31,0
3770.8,0
3770.29,0
3769.78,0
3769.27,0
3768.76,0
3768.25,0
3767.74,0
3767.23,0
3766.72,0
3766.21,0
3765.7,0
3765.19,0
3764.68,0
3764.17,0
3763.66,0
3763.15,0
3762.64,0
3762.13,0
3761.62,0
3761.11,0
3760.6,0
3760.09,0
3759.57,0
3759.06,0
3758.55,0
3758.04,0
3757.53,0
3757.02,0
3756.51,0
3756,0
3755.48,0
3754.97,0
3754.46,0
3753.95,0
3753.44,0
3752.92,0
3752.41,0
3751.9,0
3751.39,0
3750.88,0
3750.36,0
3749.85,0
3749.34,0
3748.83,0
3748.31,0
3747.8,0
3747.29,0
3746.78,0
3746.26,0
3745.75,0
3745.24,0
3744.72,0
3744.21,0
3743.7,0
3743.18,0
3742.67,0
3742.16,0
3741.64,0
3741.13,0
3740.61,0
3740.1,0
3739.59,0
3739.07,0
3738.56,0
3738.04,0
3737.53,0
3737.02,0
3736.5,0
3735.99,0
3735.47,0
3734.96,0
3734.44,0
3733.93,0
3733.41,0
3732.9,0
3732.38,0
3731.87,0
3731.35,0
3730.84,0
3730.32,0
3729.81,0
3729.29,0
3728.78,0
3728.26,0
3727.75,0
3727.23,0
3726.71,0
3726.2,0
3725.68,0
3725.17,0
3724.65,0
3724.13,0
3723.62,0
3723.1,0
3722.59,0
3722.07,0
3721.55,0
3721.04,0
3720.52,0
3720,0
3719.49,0
3718.97,0
3718.45,0
3717.93,0
3717.42,0
3716.9,0
3716.38,0
3715.87,0
3715.35,0
3714.83,0
3714.31,0
3713.8,0
3713.28,0
3712.76,0
3712.24,0
3711.72,0
3711.21,0
3710.69,0
3710.17,0
3709.65,0
3709.13,0
3708.61,0
3708.1,0
3707.58,0
3707.06,0
3706.54,0
3706.02,0
3705.5,0
3704.98,0
3704.46,0
3703.95,0
3703.43,0
3702.91,0
3702.39,0
3701.87,0
3701.35,0
3700.83,0
3700.31,0
3699.79,0
3699.27,0
3698.75,0
3698.23,0
3697.71,0
3697.19,0
3696.67,0
3696.15,0
3695.63,0
3695.11,0
3694.59,0
3694.07,0
3693.55,0
3693.03,0
3692.51,0
3691.99,0
3691.46,0
3690.94,0
3690.42,0
3689.9,0
3689.38,0
3688.86,0
3688.34,0
3687.82,0
3687.29,0
3686.77,0
3686.25,0
3685.73,0
3685.21,0
3684.69,0
3684.16,0
3683.64,0
3683.12,0
3682.6,0
3682.08,0
3681.55,0
3681.03,0
3680.51,0
3679.99,0
3679.46,0
3678.94,0
3678.42,0
3677.89,0
3677.37,0
3676.85,0
3676.33,0
3675.8,0
3675.28,0
3674.76,0
3674.23,0
3673.71,0
3673.19,0
3672.66,0
3672.14,0
3671.61,0
3671.09,0
3670.57,0
3670.04,0
3669.52,0
3668.99,0
3668.47,0
3667.95,0
3667.42,0
3666.9,0
3666.37,0
3665.85,0
3665.32,0
3664.8,0
3664.27,0
3663.75,0
3663.22,0
3662.7,0
3662.17,0
3661.65,0
3661.12,0
3660.6,0
3660.07,0
3659.55,0
3659.02,0
3658.49,0
3657.97,0
3657.44,0
3656.92,0
3656.39,0
3655.86,0
3655.34,0
3654.81,0
3654.29,0
3653.76,0
3653.23,0
3652.71,0
3652.18,0
3651.65,0
3651.13,0
3650.6,0
3650.07,0
3649.55,0
3649.02,0
3648.49,0
3647.96,0
3647.44,0
3646.91,0
3646.38,0
3645.85,0
3645.33,0
3644.8,0
3644.27,0
3643.74,0
3643.22,0
3642.69,0
3642.16,0
3641.63,0
3641.1,0
3640.57,0
3640.05,0
3639.52,0
3638.99,0
3638.46,0
3637.93,0
3637.4,0
3636.87,0
3636.35,0
3635.82,0
3635.29,0
3634.76,0
3634.23,0
3633.7,0
3633.17,0
3632.64,0
3632.11,0
3631.58,0
3631.05,0
3630.52,0
3629.99,0
3629.46,0
3628.93,0
3628.4,0
3627.87,0
3627.34,0
3626.81,0
3626.28,0
3625.75,0
3625.22,0
3624.69,0
3624.16,0
3623.63,0
3623.1,0
3622.57,0
3622.03,0
3621.5,0
3620.97,0
3620.44,0
3619.91,0
3619.38,0
3618.85,0
3618.32,0
3617.78,0
3617.25,0
3616.72,0
3616.19,0
3615.66,0
3615.12,0
3614.59,0
3614.06,0
3613.53,0
3613,0
3612.46,0
3611.93,0
3611.4,0
3610.86,0
3610.33,0
3609.8,0
3609.27,0
3608.73,0
3608.2,0
3607.67,0
3607.13,0
3606.6,0
3606.07,0
3605.53,0
3605,0
3604.47,0
3603.93,0
3603.4,0
3602.87,0
3602.33,0
3601.8,0
3601.26,0
3600.73,0
3600.2,0
3599.66,0
3599.13,0
3598.59,0
3598.06,0
3597.52,0
3596.99,0
3596.45,0
3595.92,0
3595.38,0
3594.85,0
3594.31,0
3593.78,0
3593.24,0
3592.71,0
3592.17,0
3591.64,0
3591.1,0
3590.57,0
3590.03,0
3589.49,0
3588.96,0
3588.42,0
3587.89,0
3587.35,0
3586.81,0
3586.28,0
3585.74,0
3585.2,0
3584.67,0
3584.13,0
3583.6,0
3583.06,0
3582.52,0
3581.98,0
3581.45,0
3580.91,0
3580.37,0
3579.84,0
3579.3,0
3578.76,0
3578.22,0
3577.69,0
3577.15,0
3576.61,0
3576.07,0
3575.54,0
3575,0
3574.46,0
3573.92,0
3573.38,0
3572.85,0
3572.31,0
3571.77,0
3571.23,0
3570.69,0
3570.15,0
3569.61,0
3569.08,0
3568.54,0
3568,0
3567.46,0
3566.92,0
3566.38,0
3565.84,0
3565.3,0
3564.76,0
3564.22,0
3563.68,0
3563.14,0
3562.6,0
3562.06,0
3561.52,0
3560.98,0
3560.44,0
3559.9,0
3559.36,0
3558.82,0
3558.28,0
3557.74,0
3557.2,0
3556.66,0
3556.12,0
3555.58,0
3555.04,0
3554.5,0
3553.96,0
3553.42,0
3552.87,0
3552.33,0
3551.79,0
3551.25,0
3550.71,0
3550.17,0
3549.63,0
3549.08,0
3548.54,0
3548,0
3547.46,0
3546.92,0
3546.37,0
3545.83,0
3545.29,0
3544.75,0
3544.21,0
3543.66,0
3543.12,0
3542.58,0
3542.03,0
3541.49,0
3540.95,0
3540.41,0
3539.86,0
3539.32,0
3538.78,0
3538.23,0
3537.69,0
3537.15,0
3536.6,0
3536.06,0
3535.52,0
3534.97,0
3534.43,0
3533.88,0
3533.34,0
3532.8,0
3532.25,0
3531.71,0
3531.16,0
3530.62,0
3530.07,0
3529.53,0
3528.98,0
3528.44,0
3527.89,0
3527.35,0
3526.8,0
3526.26,0
3525.71,0
3525.17,0
3524.62,0
3524.08,0
3523.53,0
3522.99,0
3522.44,0
3521.9,0
3521.35,0
3520.8,0
3520.26,0
3519.71,0
3519.17,0
3518.62,0
3518.07,0
3517.53,0
3516.98,0
3516.43,0
3515.89,0
3515.34,0
3514.79,0
3514.25,0
3513.7,0
3513.15,0
3512.61,0
3512.06,0
3511.51,0
3510.96,0
3510.42,0
3509.87,0
3509.32,0
3508.77,0
3508.23,0
3507.68,0
3507.13,0
3506.58,0
3506.04,0
3505.49,0
3504.94,0
3504.39,0
3503.84,0
3503.29,0
3502.75,0
3502.2,0
3501.65,0
3501.1,0
3500.55,0
3500,0
3499.45,0
3498.9,0
3498.35,0
3497.8,0
3497.26,0
3496.71,0
3496.16,0
3495.61,0
3495.06,0
3494.51,0
3493.96,0
3493.41,0
3492.86,0
3492.31,0
3491.76,0
3491.21,0
3490.66,0
3490.11,0
3489.56,0
3489,0
3488.45,0
3487.9,0
3487.35,0
3486.8,0
3486.25,0
3485.7,0
3485.15,0
3484.6,0
3484.05,0
3483.49,0
3482.94,0
3482.39,0
3481.84,0
3481.29,0
3480.74,0
3480.18,0
3479.63,0
3479.08,0
3478.53,0
3477.98,0
3477.42,0
3476.87,0
3476.32,0
3475.77,0
3475.21,0
3474.66,0
3474.11,0
3473.56,0
3473,0
3472.45,0
3471.9,0
3471.34,0
3470.79,0
3470.24,0
3469.68,0
3469.13,0
3468.58,0
3468.02,0
3467.47,0
3466.91,0
3466.36,0
3465.81,0
3465.25,0
3464.7,0
3464.14,0
3463.59,0
3463.04,0
3462.48,0
3461.93,0
3461.37,0
3460.82,0
3460.26,0
3459.71,0
3459.15,0
3458.6,0
3458.04,0
3457.49,0
3456.93,0
3456.38,0
3455.82,0
3455.27,0
3454.71,0
3454.15,0
3453.6,0
3453.04,0
3452.49,0
3451.93,0
3451.37,0
3450.82,0
3450.26,0
3449.7,0
3449.15,0
3448.59,0
3448.04,0
3447.48,0
3446.92,0
3446.36,0
3445.81,0
3445.25,0
3444.69,0
3444.14,0
3443.58,0
3443.02,0
3442.46,0
3441.91,0
3441.35,0
3440.79,0
3440.23,0
3439.68,0
3439.12,0
3438.56,0
3438,0
3437.44,0
3436.88,0
3436.33,0
3435.77,0
3435.21,0
3434.65,0
3434.09,0
3433.53,0
3432.97,0
3432.42,0
3431.86,0
3431.3,0
3430.74,0
3430.18,0
3429.62,0
3429.06,0
3428.5,0
3427.94,0
3427.38,0
3426.82,0
3426.26,0
3425.7,0
3425.14,0
3424.58,0
3424.02,0
3423.46,0
3422.9,0
3422.34,0
3421.78,0
3421.22,0
3420.66,0
3420.1,0
3419.54,0
3418.98,0
3418.41,0
3417.85,0
3417.29,0
3416.73,0
3416.17,0
3415.61,0
3415.05,0
3414.49,0
3413.92,0
3413.36,0
3412.8,0
3412.24,0
3411.68,0
3411.11,0
3410.55,0
3409.99,0
3409.43,0
3408.86,0
3408.3,0
3407.74,0
3407.18,0
3406.61,0
3406.05,0
3405.49,0
3404.92,0
3404.36,0
3403.8,0
3403.24,0
3402.67,0
3402.11,0
3401.54,0
3400.98,0
3400.42,0
3399.85,0
3399.29,0
3398.73,0
3398.16,0
3397.6,0
3397.03,0
3396.47,0
3395.9,0
3395.34,0
3394.78,0
3394.21,0
3393.65,0
3393.08,0
3392.52,0
3391.95,0
3391.39,0
3390.82,0
3390.26,0
3389.69,0
3389.13,0
3388.56,0
3387.99,0
3387.43,0
3386.86,0
3386.3,0
3385.73,0
3385.17,0
3384.6,0
3384.03,0
3383.47,0
3382.9,0
3382.33,0
3381.77,0
3381.2,0
3380.63,0
3380.07,0
3379.5,0
3378.93,0
3378.37,0
3377.8,0
3377.23,0
3376.67,0
3376.1,0
3375.53,0
3374.96,0
3374.4,0
3373.83,0
3373.26,0
3372.69,0
3372.12,0
3371.56,0
3370.99,0
3370.42,0
3369.85,0
3369.28,0
3368.72,0
3368.15,0
3367.58,0
3367.01,0
3366.44,0
3365.87,0
3365.3,0
3364.73,0
3364.17,0
3363.6,0
3363.03,0
3362.46,0
3361.89,0
3361.32,0
3360.75,0
3360.18,0
3359.61,0
3359.04,0
3358.47,0
3357.9,0
3357.33,0
3356.76,0
3356.19,0
3355.62,0
3355.05,0
3354.48,0
3353.91,0
3353.34,0
3352.77,0
3352.19,0
3351.62,0
3351.05,0
3350.48,0
3349.91,0
3349.34,0
3348.77,0
3348.2,0
3347.62,0
3347.05,0
3346.48,0
3345.91,0
3345.34,0
3344.76,0
3344.19,0
3343.62,0
3343.05,0
3342.48,0
3341.9,0
3341.33,0
3340.76,0
3340.19,0
3339.61,0
3339.04,0
3338.47,0
3337.89,0
3337.32,0
3336.75,0
3336.17,0
3335.6,0
3335.03,0
3334.45,0
3333.88,0
3333.31,0
3332.73,0
3332.16,0
3331.59,0
3331.01,0
3330.44,0
3329.86,0
3329.29,0
3328.71,0
3328.14,0
3327.56,0
3326.99,0
3326.42,0
3325.84,0
3325.27,0
3324.69,0
3324.12,0
3323.54,0
3322.97,0
3322.39,0
3321.81,0
3321.24,0
3320.66,0
3320.09,0
3319.51,0
3318.94,0
3318.36,0
3317.78,0
3317.21,0
3316.63,0
3316.06,0
3315.48,0
3314.9,0
3314.33,0
3313.75,0
3313.17,0
3312.6,0
3312.02,0
3311.44,0
3310.86,0
3310.29,0
3309.71,0
3309.13,0
3308.56,0
3307.98,0
3307.4,0
3306.82,0
3306.25,0
3305.67,0
3305.09,0
3304.51,0
3303.93,0
3303.36,0
3302.78,0
3302.2,0
3301.62,0
3301.04,0
3300.46,0
3299.88,0
3299.31,0
3298.73,0
3298.15,0
3297.57,0
3296.99,0
3296.41,0
3295.83,0
3295.25,0
3294.67,0
3294.09,0
3293.51,0
3292.93,0
3292.35,0
3291.77,0
3291.19,0
3290.61,0
3290.03,0
3289.45,0
3288.87,0
3288.29,0
3287.71,0
3287.13,0
3286.55,0
3285.97,0
3285.39,0
3284.81,0
3284.23,0
3283.64,0
3283.06,0
3282.48,0
3281.9,0
3281.32,0
3280.74,0
3280.16,0
3279.57,0
3278.99,0
3278.41,0
3277.83,0
3277.25,0
3276.66,0
3276.08,0
3275.5,0
3274.92,0
3274.33,0
3273.75,0
3273.17,0
3272.59,0
3272,0
3271.42,0
3270.84,0
3270.25,0
3269.67,0
3269.09,0
3268.5,0
3267.92,0
3267.34,0
3266.75,0
3266.17,0
3265.59,0
3265,0
3264.42,0
3263.83,0
3263.25,0
3262.67,0
3262.08,0
3261.5,0
3260.91,0
3260.33,0
3259.74,0
3259.16,0
3258.57,0
3257.99,0
3257.4,0
3256.82,0
3256.23,0
3255.65,0
3255.06,0
3254.48,0
3253.89,0
3253.3,0
3252.72,0
3252.13,0
3251.55,0
3250.96,0
3250.37,0
3249.79,0
3249.2,0
3248.62,0
3248.03,0
3247.44,0
3246.86,0
3246.27,0
3245.68,0
3245.09,0
3244.51,0
3243.92,0
3243.33,0
3242.75,0
3242.16,0
3241.57,0
3240.98,0
3240.4,0
3239.81,0
3239.22,0
3238.63,0
3238.04,0
3237.46,0
3236.87,0
3236.28,0
3235.69,0
3235.1,0
3234.51,0
3233.93,0
3233.34,0
3232.75,0
3232.16,0
3231.57,0
3230.98,0
3230.39,0
3229.8,0
3229.21,0
3228.62,0
3228.04,0
3227.45,0
3226.86,0
3226.27,0
3225.68,0
3225.09,0
3224.5,0
3223.91,0
3223.32,0
3222.73,0
3222.14,0
3221.54,0
3220.95,0
3220.36,0
3219.77,0
3219.18,0
3218.59,0
3218,0
3217.41,0
3216.82,0
3216.23,0
3215.63,0
3215.04,0
3214.45,0
3213.86,0
3213.27,0
3212.68,0
3212.08,0
3211.49,0
3210.9,0
3210.31,0
3209.72,0
3209.12,0
3208.53,0
3207.94,0
3207.35,0
3206.75,0
3206.16,0
3205.57,0
3204.97,0
3204.38,0
3203.79,0
3203.2,0
3202.6,0
3202.01,0
3201.41,0
3200.82,0
3200.23,0
3199.63,0
3199.04,0
3198.45,0
3197.85,0
3197.26,0
3196.66,0
3196.07,0
3195.47,0
3194.88,0
3194.29,0
3193.69,0
3193.1,0
3192.5,0
3191.91,0
3191.31,0
3190.72,0
3190.12,0
3189.53,0
3188.93,0
3188.33,0
3187.74,0
3187.14,0
3186.55,0
3185.95,0
3185.36,0
3184.76,0
3184.16,0
3183.57,0
3182.97,0
3182.37,0
3181.78,0
3181.18,0
3180.58,0
3179.99,0
3179.39,0
3178.79,0
3178.2,0
3177.6,0
3177,0
3176.41,0
3175.81,0
3175.21,0
3174.61,0
3174.02,0
3173.42,0
3172.82,0
3172.22,0
3171.62,0
3171.03,0
3170.43,0
3169.83,0
3169.23,0
3168.63,0
3168.03,0
3167.43,0
3166.84,0
3166.24,0
3165.64,0
3165.04,0
3164.44,0
3163.84,0
3163.24,0
3162.64,0
3162.04,0
3161.44,0
3160.84,0
3160.24,0
3159.64,0
3159.04,0
3158.44,0
3157.84,0
3157.24,0
3156.64,0
3156.04,0
3155.44,0
3154.84,0
3154.24,0
3153.64,0
3153.04,0
3152.44,0
3151.84,0
3151.24,0
3150.64,0
3150.03,0
3149.43,0
3148.83,0
3148.23,0
3147.63,0
3147.03,0
3146.42,0
3145.82,0
3145.22,0
3144.62,0
3144.02,0
3143.41,0
3142.81,0
3142.21,0
3141.61,0
3141,0
3140.4,0
3139.8,0
3139.19,0
3138.59,0
3137.99,0
3137.39,0
3136.78,0
3136.18,0
3135.58,0
3134.97,0
3134.37,0
3133.76,0
3133.16,0
3132.56,0
3131.95,0
3131.35,0
3130.74,0
3130.14,0
3129.54,0
3128.93,0
3128.33,0
3127.72,0
3127.12,0
3126.51,0
3125.91,0
3125.3,0
3124.7,0
3124.09,0
3123.49,0
3122.88,0
3122.27,0
3121.67,0
3121.06,0
3120.46,0
3119.85,0
3119.25,0
3118.64,0
3118.03,0
3117.43,0
3116.82,0
3116.21,0
3115.61,0
3115,0
3114.39,0
3113.79,0
3113.18,0
3112.57,0
3111.97,0
3111.36,0
3110.75,0
3110.15,0
3109.54,0
3108.93,0
3108.32,0
3107.71,0
3107.11,0
3106.5,0
3105.89,0
3105.28,0
3104.67,0
3104.07,0
3103.46,0
3102.85,0
3102.24,0
3101.63,0
3101.02,0
3100.41,0
3099.81,0
3099.2,0
3098.59,0
3097.98,0
3097.37,0
3096.76,0
3096.15,0
3095.54,0
3094.93,0
3094.32,0
3093.71,0
3093.1,0
3092.49,0
3091.88,0
3091.27,0
3090.66,0
3090.05,0
3089.44,0
3088.83,0
3088.22,0
3087.61,0
3087,0
3086.39,0
3085.77,0
3085.16,0
3084.55,0
3083.94,0
3083.33,0
3082.72,0
3082.11,0
3081.49,0
3080.88,0
3080.27,0
3079.66,0
3079.05,0
3078.43,0
3077.82,0
3077.21,0
3076.6,0
3075.98,0
3075.37,0
3074.76,0
3074.15,0
3073.53,0
3072.92,0
3072.31,0
3071.69,0
3071.08,0
3070.47,0
3069.85,0
3069.24,0
3068.63,0
3068.01,0
3067.4,0
3066.79,0
3066.17,0
3065.56,0
3064.94,0
3064.33,0
3063.71,0
3063.1,0
3062.48,0
3061.87,0
3061.26,0
3060.64,0
3060.03,0.0131985032841952
3059.41,0.014429488583001
3058.79,0.0154658071293234
3058.18,0.016497579856204
3057.56,0.0175375007089428
3056.95,0.0186128548934007
3056.33,0.0194080819637905
3055.72,0.0200408379630384
3055.1,0.020460532052084
3054.49,0.0206723671296168
3053.87,0.020730932771436
3053.25,0.0206281673372483
3052.64,0.0204250083889723
3052.02,0.02009644637078
3051.41,0.0195935662229137
3050.79,0.0188762952101085
3050.17,0.0177944268974423
3049.56,0.0167193804113752
3048.94,0.0156501041070279
3048.32,0.0146421530916695
3047.71,0.0137081012765713
3047.09,0
3046.47,0
3045.85,0
3045.24,0
3044.62,0
3044,0
3043.38,0
3042.77,0
3042.15,0
3041.53,0
3040.91,0
3040.3,0
3039.68,0
3039.06,0
3038.44,0
3037.82,0
3037.2,0
3036.59,0
3035.97,0
3035.35,0
3034.73,0
3034.11,0
3033.49,0
3032.87,0
3032.25,0
3031.63,0
3031.01,0
3030.39,0
3029.77,0
3029.15,0
3028.54,0
3027.92,0
3027.3,0
3026.68,0
3026.05,0
3025.43,0
3024.81,0
3024.19,0
3023.57,0
3022.95,0
3022.33,0
3021.71,0
3021.09,0
3020.47,0
3019.85,0
3019.23,0
3018.61,0
3017.98,0
3017.36,0
3016.74,0
3016.12,0
3015.5,0
3014.88,0
3014.25,0
3013.63,0
3013.01,0
3012.39,0
3011.76,0
3011.14,0
3010.52,0
3009.9,0
3009.27,0
3008.65,0
3008.03,0
3007.4,0
3006.78,0
3006.16,0
3005.54,0
3004.91,0
3004.29,0
3003.66,0
3003.04,0
3002.42,0
3001.79,0
3001.17,0
3000.54,0
2999.92,0
2999.3,0
2998.67,0
2998.05,0
2997.42,0
2996.8,0
2996.17,0
2995.55,0
2994.92,0
2994.3,0
2993.67,0
2993.05,0
2992.42,0
2991.8,0
2991.17,0
2990.55,0
2989.92,0
2989.29,0
2988.67,0
2988.04,0
2987.42,0
2986.79,0
2986.16,0
2985.54,0
2984.91,0
2984.28,0
2983.66,0
2983.03,0
2982.4,0
2981.78,0
2981.15,0
2980.52,0
2979.9,0
2979.27,0
2978.64,0
2978.01,0
2977.39,0
2976.76,0
2976.13,0
2975.5,0
2974.87,0
2974.25,0
2973.62,0
2972.99,0
2972.36,0
2971.73,0
2971.1,0
2970.47,0
2969.85,0
2969.22,0
2968.59,0
2967.96,0
2967.33,0
2966.7,0
2966.07,0
2965.44,0
2964.81,0
2964.18,0
2963.55,0
2962.92,0
2962.29,0
2961.66,0
2961.03,0
2960.4,0
2959.77,0
2959.14,0
2958.51,0
2957.88,0
2957.25,0
2956.62,0
2955.99,0
2955.36,0
2954.73,0
2954.09,0
2953.46,0
2952.83,0
2952.2,0
2951.57,0
2950.94,0
2950.3,0
2949.67,0
2949.04,0
2948.41,0
2947.78,0
2947.14,0
2946.51,0
2945.88,0
2945.25,0
2944.61,0
2943.98,0
2943.35,0
2942.71,0
2942.08,0
2941.45,0
2940.82,0
2940.18,0
2939.55,0
2938.91,0
2938.28,0
2937.65,0
2937.01,0
2936.38,0
2935.75,0
2935.11,0
2934.48,0
2933.84,0
2933.21,0
2932.57,0
2931.94,0
2931.3,0
2930.67,0
2930.03,0
2929.4,0
2928.76,0
2928.13,0
2927.49,0
2926.86,0
2926.22,0
2925.59,0
2924.95,0
2924.32,0
2923.68,0
2923.04,0
2922.41,0
2921.77,0
2921.13,0
2920.5,0
2919.86,0
2919.23,0
2918.59,0
2917.95,0
2917.31,0
2916.68,0
2916.04,0
2915.4,0
2914.77,0
2914.13,0
2913.49,0
2912.85,0
2912.22,0
2911.58,0
2910.94,0
2910.3,0
2909.66,0
2909.03,0
2908.39,0
2907.75,0
2907.11,0
2906.47,0
2905.83,0
2905.19,0
2904.56,0
2903.92,0
2903.28,0
2902.64,0
2902,0
2901.36,0
2900.72,0
2900.08,0
2899.44,0
2898.8,0
2898.16,0
2897.52,0
2896.88,0
2896.24,0
2895.6,0
2894.96,0
2894.32,0
2893.68,0
2893.04,0
2892.4,0
2891.76,0
2891.12,0
2890.48,0
2889.83,0
2889.19,0
2888.55,0
2887.91,0
2887.27,0
2886.63,0
2885.98,0
2885.34,0
2884.7,0
2884.06,0
2883.42,0
2882.77,0
2882.13,0
2881.49,0
2880.85,0
2880.2,0
2879.56,0
2878.92,0
2878.28,0
2877.63,0
2876.99,0
2876.35,0
2875.7,0
2875.06,0
2874.42,0
2873.77,0
2873.13,0
2872.48,0
2871.84,0
2871.2,0
2870.55,0
2869.91,0
2869.26,0
2868.62,0
2867.98,0
2867.33,0
2866.69,0
2866.04,0
2865.4,0
2864.75,0
2864.11,0
2863.46,0
2862.82,0
2862.17,0
2861.52,0
2860.88,0
2860.23,0
2859.59,0
2858.94,0
2858.29,0
2857.65,0
2857,0
2856.36,0
2855.71,0
2855.06,0
2854.42,0
2853.77,0
2853.12,0
2852.48,0
2851.83,0
2851.18,0
2850.53,0
2849.89,0
2849.24,0
2848.59,0
2847.94,0
2847.3,0
2846.65,0
2846,0
2845.35,0
2844.7,0
2844.06,0
2843.41,0
2842.76,0
2842.11,0
2841.46,0
2840.81,0
2840.16,0
2839.52,0
2838.87,0
2838.22,0
2837.57,0
2836.92,0
2836.27,0
2835.62,0
2834.97,0
2834.32,0
2833.67,0
2833.02,0
2832.37,0
2831.72,0
2831.07,0
2830.42,0
2829.77,0
2829.12,0
2828.47,0
2827.82,0
2827.17,0
2826.51,0
2825.86,0
2825.21,0
2824.56,0
2823.91,0
2823.26,0
2822.61,0
2821.96,0
2821.3,0
2820.65,0
2820,0
2819.35,0
2818.7,0
2818.04,0
2817.39,0
2816.74,0
2816.09,0
2815.43,0
2814.78,0
2814.13,0
2813.47,0
2812.82,0
2812.17,0
2811.51,0
2810.86,0
2810.21,0
2809.55,0
2808.9,0
2808.25,0
2807.59,0
2806.94,0
2806.28,0
2805.63,0
2804.98,0
2804.32,0
2803.67,0
2803.01,0
2802.36,0
2801.7,0
2801.05,0
2800.39,0
2799.74,0
2799.08,0
2798.43,0
2797.77,0
2797.12,0
2796.46,0
2795.8,0
2795.15,0
2794.49,0
2793.84,0
2793.18,0
2792.52,0
2791.87,0
2791.21,0
2790.55,0
2789.9,0
2789.24,0
2788.58,0
2787.93,0
2787.27,0
2786.61,0
2785.95,0
2785.3,0
2784.64,0
2783.98,0
2783.32,0
2782.67,0
2782.01,0
2781.35,0
2780.69,0
2780.03,0
2779.38,0
2778.72,0
2778.06,0
2777.4,0
2776.74,0
2776.08,0
2775.42,0
2774.76,0
2774.11,0
2773.45,0
2772.79,0
2772.13,0
2771.47,0
2770.81,0
2770.15,0
2769.49,0
2768.83,0
2768.17,0
2767.51,0
2766.85,0
2766.19,0
2765.53,0
2764.87,0
2764.21,0
2763.55,0
2762.88,0
2762.22,0
2761.56,0
2760.9,0
2760.24,0
2759.58,0
2758.92,0
2758.26,0
2757.59,0
2756.93,0
2756.27,0
2755.61,0
2754.95,0
2754.28,0
2753.62,0
2752.96,0
2752.3,0
2751.63,0
2750.97,0
2750.31,0
2749.64,0
2748.98,0
2748.32,0
2747.65,0
2746.99,0
2746.33,0
2745.66,0
2745,0
2744.34,0
2743.67,0
2743.01,0
2742.34,0
2741.68,0
2741.02,0
2740.35,0
2739.69,0
2739.02,0
2738.36,0
2737.69,0
2737.03,0
2736.36,0
2735.7,0
2735.03,0
2734.37,0
2733.7,0
2733.04,0
2732.37,0
2731.7,0
2731.04,0
2730.37,0
2729.71,0
2729.04,0
2728.37,0
2727.71,0
2727.04,0
2726.37,0
2725.71,0
2725.04,0
2724.37,0
2723.71,0
2723.04,0
2722.37,0
2721.71,0
2721.04,0
2720.37,0
2719.7,0
2719.03,0
2718.37,0
2717.7,0
2717.03,0
2716.36,0
2715.69,0
2715.03,0
2714.36,0
2713.69,0
2713.02,0
2712.35,0
2711.68,0
2711.01,0
2710.34,0
2709.67,0
2709.01,0
2708.34,0
2707.67,0
2707,0
2706.33,0
2705.66,0
2704.99,0
2704.32,0
2703.65,0
2702.98,0
2702.31,0
2701.64,0
2700.96,0
2700.29,0
2699.62,0
2698.95,0
2698.28,0
2697.61,0
2696.94,0
2696.27,0
2695.6,0
2694.92,0
2694.25,0
2693.58,0
2692.91,0
2692.24,0
2691.57,0
2690.89,0
2690.22,0
2689.55,0
2688.88,0
2688.2,0
2687.53,0
2686.86,0
2686.18,0
2685.51,0
2684.84,0
2684.17,0
2683.49,0
2682.82,0
2682.14,0
2681.47,0
2680.8,0
2680.12,0
2679.45,0
2678.78,0
2678.1,0
2677.43,0
2676.75,0
2676.08,0
2675.4,0
2674.73,0
2674.05,0
2673.38,0
2672.7,0
2672.03,0
2671.35,0
2670.68,0
2670,0
2669.33,0
2668.65,0
2667.98,0
2667.3,0
2666.62,0
2665.95,0
2665.27,0
2664.59,0
2663.92,0
2663.24,0
2662.56,0
2661.89,0
2661.21,0
2660.53,0
2659.86,0
2659.18,0
2658.5,0
2657.83,0
2657.15,0
2656.47,0
2655.79,0
2655.11,0
2654.44,0
2653.76,0
2653.08,0
2652.4,0
2651.72,0
2651.05,0
2650.37,0
2649.69,0
2649.01,0
2648.33,0
2647.65,0
2646.97,0
2646.29,0
2645.61,0
2644.93,0
2644.25,0
2643.57,0
2642.9,0
2642.22,0
2641.54,0
2640.86,0
2640.18,0
2639.49,0
2638.81,0
2638.13,0
2637.45,0
2636.77,0
2636.09,0
2635.41,0
2634.73,0
2634.05,0
2633.37,0
2632.69,0
2632,0
2631.32,0
2630.64,0
2629.96,0
2629.28,0
2628.6,0
2627.91,0
2627.23,0
2626.55,0
2625.87,0
2625.18,0
2624.5,0
2623.82,0
2623.14,0
2622.45,0
2621.77,0
2621.09,0
2620.4,0
2619.72,0
2619.04,0
2618.35,0
2617.67,0
2616.98,0
2616.3,0
2615.62,0
2614.93,0
2614.25,0
2613.56,0
2612.88,0
2612.19,0
2611.51,0
2610.83,0
2610.14,0
2609.46,0
2608.77,0
2608.08,0
2607.4,0
2606.71,0
2606.03,0
2605.34,0
2604.66,0
2603.97,0
2603.28,0
2602.6,0
2601.91,0
2601.23,0
2600.54,0
2599.85,0
2599.17,0
2598.48,0
2597.79,0
2597.11,0
2596.42,0
2595.73,0
2595.04,0
2594.36,0
2593.67,0
2592.98,0
2592.29,0
2591.61,0
2590.92,0
2590.23,0
2589.54,0
2588.85,0
2588.16,0
2587.48,0
2586.79,0
2586.1,0
2585.41,0
2584.72,0
2584.03,0
2583.34,0
2582.65,0
2581.96,0
2581.27,0
2580.58,0
2579.9,0
2579.21,0
2578.52,0
2577.83,0
2577.14,0
2576.44,0
2575.75,0
2575.06,0
2574.37,0
2573.68,0
2572.99,0
2572.3,0
2571.61,0
2570.92,0
2570.23,0
2569.54,0
2568.84,0
2568.15,0
2567.46,0
2566.77,0
2566.08,0
2565.39,0
2564.69,0
2564,0
2563.31,0
2562.62,0
2561.92,0
2561.23,0
2560.54,0
2559.85,0
2559.15,0
2558.46,0
2557.77,0
2557.07,0
2556.38,0
2555.69,0
2554.99,0
2554.3,0
2553.6,0
2552.91,0
2552.22,0
2551.52,0
2550.83,0
2550.13,0
2549.44,0
2548.74,0
2548.05,0
2547.35,0
2546.66,0
2545.96,0
2545.27,0
2544.57,0
2543.88,0
2543.18,0
2542.49,0
2541.79,0
2541.1,0
2540.4,0
2539.7,0
2539.01,0
2538.31,0
2537.61,0
2536.92,0
2536.22,0
2535.52,0
2534.83,0
2534.13,0
2533.43,0
2532.74,0
2532.04,0
2531.34,0
2530.64,0
2529.95,0
2529.25,0
2528.55,0
2527.85,0
2527.15,0
2526.46,0
2525.76,0
2525.06,0
2524.36,0
2523.66,0
2522.96,0
2522.26,0
2521.57,0
2520.87,0
2520.17,0
2519.47,0
2518.77,0
2518.07,0
2517.37,0
2516.67,0
2515.97,0
2515.27,0
2514.57,0
2513.87,0
2513.17,0
2512.47,0
2511.77,0
2511.07,0
2510.37,0
2509.66,0
2508.96,0
2508.26,0
2507.56,0
2506.86,0
2506.16,0
2505.46,0
2504.76,0
2504.05,0
2503.35,0
2502.65,0
2501.95,0
2501.25,0
2500.54,0
2499.84,0
2499.14,0
2498.44,0
2497.73,0
2497.03,0
2496.33,0
2495.62,0
2494.92,0
2494.22,0
2493.51,0
2492.81,0
2492.11,0
2491.4,0
2490.7,0
2489.99,0
2489.29,0
2488.59,0
2487.88,0
2487.18,0
2486.47,0
2485.77,0
2485.06,0
2484.36,0
2483.65,0
2482.95,0
2482.24,0
2481.54,0
2480.83,0
2480.13,0
2479.42,0
2478.71,0
2478.01,0
2477.3,0
2476.6,0
2475.89,0
2475.18,0
2474.48,0
2473.77,0
2473.06,0
2472.36,0
2471.65,0
2470.94,0
2470.24,0
2469.53,0
2468.82,0
2468.11,0
2467.41,0
2466.7,0
2465.99,0
2465.28,0
2464.57,0
2463.87,0
2463.16,0
2462.45,0
2461.74,0
2461.03,0
2460.32,0
2459.61,0
2458.9,0
2458.2,0
2457.49,0
2456.78,0
2456.07,0
2455.36,0
2454.65,0
2453.94,0
2453.23,0
2452.52,0
2451.81,0
2451.1,0
2450.39,0
2449.68,0
2448.97,0
2448.26,0
2447.55,0
2446.83,0
2446.12,0
2445.41,0
2444.7,0
2443.99,0
2443.28,0
2442.57,0
2441.85,0
2441.14,0
2440.43,0
2439.72,0
2439.01,0
2438.29,0
2437.58,0
2436.87,0
2436.16,0
2435.44,0
2434.73,0
2434.02,0
2433.3,0
2432.59,0
2431.88,0
2431.16,0
2430.45,0
2429.74,0
2429.02,0
2428.31,0
2427.6,0
2426.88,0
2426.17,0
2425.45,0
2424.74,0
2424.02,0
2423.31,0
2422.59,0
2421.88,0
2421.16,0
2420.45,0
2419.73,0
2419.02,0
2418.3,0
2417.59,0
2416.87,0
2416.16,0
2415.44,0
2414.72,0
2414.01,0
2413.29,0
2412.57,0
2411.86,0
2411.14,0
2410.42,0
2409.71,0
2408.99,0
2408.27,0
2407.56,0
2406.84,0
2406.12,0
2405.4,0
2404.69,0
2403.97,0
2403.25,0
2402.53,0
2401.81,0
2401.1,0
2400.38,0
2399.66,0
2398.94,0
2398.22,0
2397.5,0
2396.78,0
2396.06,0
2395.35,0
2394.63,0
2393.91,0
2393.19,0
2392.47,0
2391.75,0
2391.03,0
2390.31,0
2389.59,0
2388.87,0
2388.15,0
2387.43,0
2386.71,0
2385.98,0
2385.26,0
2384.54,0
2383.82,0
2383.1,0
2382.38,0
2381.66,0
2380.94,0
2380.21,0
2379.49,0
2378.77,0
2378.05,0
2377.33,0
2376.6,0
2375.88,0
2375.16,0
2374.44,0
2373.71,0
2372.99,0
2372.27,0
2371.55,0
2370.82,0
2370.1,0
2369.38,0
2368.65,0
2367.93,0
2367.21,0
2366.48,0
2365.76,0
2365.03,0
2364.31,0
2363.58,0
2362.86,0
2362.14,0
2361.41,0
2360.69,0
2359.96,0
2359.24,0
2358.51,0
2357.79,0
2357.06,0
2356.33,0
2355.61,0
2354.88,0
2354.16,0
2353.43,0
2352.71,0
2351.98,0
2351.25,0
2350.53,0
2349.8,0
2349.07,0
2348.35,0
2347.62,0
2346.89,0
2346.17,0
2345.44,0
2344.71,0
2343.98,0
2343.26,0
2342.53,0
2341.8,0
2341.07,0
2340.34,0
2339.62,0
2338.89,0
2338.16,0
2337.43,0
2336.7,0
2335.97,0
2335.24,0
2334.52,0
2333.79,0
2333.06,0
2332.33,0
2331.6,0
2330.87,0
2330.14,0
2329.41,0
2328.68,0
2327.95,0
2327.22,0
2326.49,0
2325.76,0
2325.03,0
2324.3,0
2323.57,0
2322.83,0
2322.1,0
2321.37,0
2320.64,0
2319.91,0
2319.18,0
2318.45,0
2317.71,0
2316.98,0
2316.25,0
2315.52,0
2314.79,0
2314.05,0
2313.32,0
2312.59,0
2311.86,0
2311.12,0
2310.39,0
2309.66,0
2308.92,0
2308.19,0
2307.46,0
2306.72,0
2305.99,0
2305.26,0
2304.52,0
2303.79,0
2303.05,0
2302.32,0
2301.59,0
2300.85,0
2300.12,0
2299.38,0
2298.65,0
2297.91,0
2297.18,0
2296.44,0
2295.71,0
2294.97,0
2294.24,0
2293.5,0
2292.76,0
2292.03,0
2291.29,0
2290.56,0
2289.82,0
2289.08,0
2288.35,0
2287.61,0
2286.87,0
2286.14,0
2285.4,0
2284.66,0
2283.93,0
2283.19,0
2282.45,0
2281.71,0
2280.98,0
2280.24,0
2279.5,0
2278.76,0
2278.02,0
2277.29,0
2276.55,0
2275.81,0
2275.07,0
2274.33,0
2273.59,0
2272.85,0
2272.11,0
2271.37,0
2270.64,0
2269.9,0
2269.16,0
2268.42,0
2267.68,0
2266.94,0
2266.2,0
2265.46,0
2264.72,0
2263.98,0
2263.23,0
2262.49,0
2261.75,0
2261.01,0
2260.27,0
2259.53,0
2258.79,0
2258.05,0
2257.31,0
2256.56,0
2255.82,0
2255.08,0
2254.34,0
2253.6,0
2252.85,0
2252.11,0
2251.37,0
2250.63,0
2249.88,0
2249.14,0
2248.4,0
2247.65,0
2246.91,0
2246.17,0
2245.42,0
2244.68,0
2243.94,0
2243.19,0
2242.45,0
2241.71,0
2240.96,0
2240.22,0
2239.47,0
2238.73,0
2237.98,0
2237.24,0
2236.49,0
2235.75,0
2235,0
2234.26,0
2233.51,0
2232.77,0
2232.02,0
2231.28,0
2230.53,0
2229.78,0
2229.04,0
2228.29,0
2227.54,0
2226.8,0
2226.05,0
2225.3,0
2224.56,0
2223.81,0
2223.06,0
2222.32,0
2221.57,0
2220.82,0
2220.07,0
2219.33,0
2218.58,0
2217.83,0
2217.08,0
2216.33,0
2215.59,0
2214.84,0
2214.09,0
2213.34,0
2212.59,0
2211.84,0
2211.09,0
2210.34,0
2209.59,0
2208.84,0
2208.09,0
2207.35,0
2206.6,0
2205.85,0
2205.1,0
2204.35,0
2203.59,0
2202.84,0
2202.09,0
2201.34,0
2200.59,0
2199.84,0
2199.09,0
2198.34,0
2197.59,0
2196.84,0
2196.09,0
2195.33,0
2194.58,0
2193.83,0
2193.08,0
2192.33,0
2191.57,0
2190.82,0
2190.07,0
2189.32,0
2188.56,0
2187.81,0
2187.06,0
2186.3,0
2185.55,0
2184.8,0
2184.04,0
2183.29,0
2182.54,0
2181.78,0
2181.03,0
2180.27,0
2179.52,0
2178.77,0
2178.01,0
2177.26,0
2176.5,0
2175.75,0
2174.99,0
2174.24,0
2173.48,0
2172.73,0
2171.97,0
2171.22,0
2170.46,0
2169.7,0
2168.95,0
2168.19,0
2167.44,0
2166.68,0
2165.92,0
2165.17,0
2164.41,0
2163.65,0
2162.9,0
2162.14,0
2161.38,0
2160.62,0
2159.87,0
2159.11,0
2158.35,0
2157.59,0
2156.83,0
2156.08,0
2155.32,0
2154.56,0
2153.8,0
2153.04,0
2152.28,0
2151.53,0
2150.77,0
2150.01,0
2149.25,0
2148.49,0
2147.73,0
2146.97,0
2146.21,0
2145.45,0
2144.69,0
2143.93,0
2143.17,0
2142.41,0
2141.65,0
2140.89,0
2140.13,0
2139.37,0
2138.61,0
2137.85,0
2137.08,0
2136.32,0
2135.56,0
2134.8,0
2134.04,0
2133.28,0
2132.51,0
2131.75,0
2130.99,0
2130.23,0
2129.47,0
2128.7,0
2127.94,0
2127.18,0
2126.41,0
2125.65,0
2124.89,0
2124.12,0
2123.36,0
2122.6,0
2121.83,0
2121.07,0
2120.31,0
2119.54,0
2118.78,0
2118.01,0
2117.25,0
2116.48,0
2115.72,0
2114.95,0
2114.19,0
2113.42,0
2112.66,0
2111.89,0
2111.13,0
2110.36,0
2109.6,0
2108.83,0
2108.07,0
2107.3,0
2106.53,0
2105.77,0
2105,0
2104.23,0
2103.47,0
2102.7,0
2101.93,0
2101.17,0
2100.4,0
2099.63,0
2098.86,0
2098.1,0
2097.33,0
2096.56,0
2095.79,0
2095.02,0
2094.26,0
2093.49,0
2092.72,0
2091.95,0
2091.18,0
2090.41,0
2089.64,0
2088.87,0
2088.11,0
2087.34,0
2086.57,0
2085.8,0
2085.03,0
2084.26,0
2083.49,0
2082.72,0
2081.95,0
2081.18,0
2080.41,0
2079.63,0
2078.86,0
2078.09,0
2077.32,0
2076.55,0
2075.78,0
2075.01,0
2074.24,0
2073.47,0
2072.69,0
2071.92,0
2071.15,0
2070.38,0
2069.6,0
2068.83,0
2068.06,0
2067.29,0
2066.51,0
2065.74,0
2064.97,0
2064.19,0
2063.42,0
2062.65,0
2061.87,0
2061.1,0
2060.33,0
2059.55,0
2058.78,0
2058,0
2057.23,0
2056.46,0
2055.68,0
2054.91,0
2054.13,0
2053.36,0
2052.58,0
2051.81,0
2051.03,0
2050.26,0
2049.48,0
2048.7,0
2047.93,0
2047.15,0
2046.38,0
2045.6,0
2044.82,0
2044.05,0
2043.27,0
2042.49,0
2041.72,0
2040.94,0
2040.16,0
2039.38,0
2038.61,0
2037.83,0
2037.05,0
2036.27,0
2035.5,0
2034.72,0
2033.94,0
2033.16,0
2032.38,0
2031.6,0
2030.83,0
2030.05,0
2029.27,0
2028.49,0
2027.71,0
2026.93,0
2026.15,0
2025.37,0
2024.59,0
2023.81,0
2023.03,0
2022.25,0
2021.47,0
2020.69,0
2019.91,0
2019.13,0
2018.35,0
2017.57,0
2016.79,0
2016,0
2015.22,0
2014.44,0
2013.66,0
2012.88,0
2012.1,0
2011.31,0
2010.53,0
2009.75,0
2008.97,0
2008.19,0
2007.4,0
2006.62,0
2005.84,0
2005.05,0
2004.27,0
2003.49,0
2002.7,0
2001.92,0
2001.14,0
2000.35,0
1999.57,0
1998.79,0
1998,0
1997.22,0
1996.43,0
1995.65,0
1994.86,0
1994.08,0
1993.29,0
1992.51,0
1991.72,0
1990.94,0
1990.15,0
1989.37,0
1988.58,0
1987.8,0
1987.01,0
1986.22,0
1985.44,0
1984.65,0
1983.86,0
1983.08,0
1982.29,0
1981.5,0
1980.72,0
1979.93,0
1979.14,0
1978.35,0
1977.57,0
1976.78,0
1975.99,0
1975.2,0
1974.42,0
1973.63,0
1972.84,0
1972.05,0
1971.26,0
1970.47,0
1969.68,0
1968.89,0
1968.11,0
1967.32,0
1966.53,0
1965.74,0
1964.95,0
1964.16,0
1963.37,0
1962.58,0
1961.79,0
1961,0
1960.21,0
1959.42,0
1958.63,0
1957.83,0
1957.04,0
1956.25,0
1955.46,0
1954.67,0
1953.88,0
1953.09,0
1952.3,0
1951.5,0
1950.71,0
1949.92,0
1949.13,0
1948.33,0
1947.54,0
1946.75,0
1945.96,0
1945.16,0
1944.37,0
1943.58,0
1942.78,0
1941.99,0
1941.2,0
1940.4,0
1939.61,0
1938.81,0
1938.02,0
1937.23,0
1936.43,0
1935.64,0
1934.84,0
1934.05,0
1933.25,0
1932.46,0
1931.66,0
1930.87,0
1930.07,0
1929.28,0
1928.48,0
1927.68,0
1926.89,0
1926.09,0
1925.3,0
1924.5,0
1923.7,0
1922.91,0
1922.11,0
1921.31,0
1920.52,0
1919.72,0
1918.92,0
1918.12,0
1917.33,0
1916.53,0
1915.73,0
1914.93,0
1914.13,0
1913.34,0
1912.54,0
1911.74,0
1910.94,0
1910.14,0
1909.34,0
1908.54,0
1907.74,0
1906.94,0
1906.14,0
1905.35,0
1904.55,0
1903.75,0
1902.95,0
1902.15,0
1901.35,0
1900.54,0
1899.74,0
1898.94,0
1898.14,0
1897.34,0
1896.54,0
1895.74,0
1894.94,0
1894.14,0
1893.33,0
1892.53,0
1891.73,0
1890.93,0
1890.13,0
1889.32,0
1888.52,0
1887.72,0
1886.92,0
1886.11,0
1885.31,0
1884.51,0
1883.7,0
1882.9,0
1882.1,0
1881.29,0
1880.49,0
1879.69,0
1878.88,0
1878.08,0
1877.27,0
1876.47,0
1875.66,0
1874.86,0
1874.06,0
1873.25,0
1872.45,0
1871.64,0
1870.83,0
1870.03,0
1869.22,0
1868.42,0
1867.61,0
1866.81,0
1866,0
1865.19,0
1864.39,0
1863.58,0
1862.77,0
1861.97,0
1861.16,0
1860.35,0
1859.54,0
1858.74,0
1857.93,0
1857.12,0
1856.31,0
1855.51,0
1854.7,0
1853.89,0
1853.08,0
1852.27,0
1851.46,0
1850.66,0
1849.85,0
1849.04,0
1848.23,0
1847.42,0
1846.61,0
1845.8,0
1844.99,0
1844.18,0
1843.37,0
1842.56,0
1841.75,0
1840.94,0
1840.13,0
1839.32,0
1838.51,0
1837.7,0
1836.89,0
1836.07,0
1835.26,0
1834.45,0
1833.64,0
1832.83,0
1832.02,0
1831.2,0
1830.39,0
1829.58,0
1828.77,0
1827.95,0
1827.14,0
1826.33,0
1825.52,0
1824.7,0
1823.89,0
1823.08,0
1822.26,0
1821.45,0
1820.63,0
1819.82,0
1819.01,0
1818.19,0
1817.38,0
1816.56,0
1815.75,0
1814.93,0
1814.12,0
1813.3,0
1812.49,0
1811.67,0
1810.86,0
1810.04,0
1809.23,0
1808.41,0
1807.59,0
1806.78,0
1805.96,0
1805.15,0
1804.33,0
1803.51,0
1802.7,0
1801.88,0
1801.06,0
1800.24,0
1799.43,0
1798.61,0
1797.79,0
1796.97,0
1796.16,0
1795.34,0
1794.52,0
1793.7,0
1792.88,0
1792.06,0
1791.24,0
1790.43,0
1789.61,0
1788.79,0
1787.97,0
1787.15,0
1786.33,0
1785.51,0
1784.69,0
1783.87,0
1783.05,0
1782.23,0
1781.41,0
1780.59,0
1779.77,0
1778.95,0
1778.13,0
1777.3,0
1776.48,0
1775.66,0
1774.84,0
1774.02,0
1773.2,0
1772.37,0
1771.55,0
1770.73,0
1769.91,0
1769.08,0
1768.26,0
1767.44,0
1766.62,0
1765.79,0
1764.97,0
1764.15,0
1763.32,0
1762.5,0
1761.68,0
1760.85,0
1760.03,0
1759.2,0
1758.38,0
1757.55,0
1756.73,0
1755.91,0
1755.08,0
1754.26,0
1753.43,0
1752.6,0
1751.78,0
1750.95,0
1750.13,0
1749.3,0
1748.48,0
1747.65,0
1746.82,0
1746,0
1745.17,0
1744.34,0
1743.52,0
1742.69,0
1741.86,0
1741.04,0
1740.21,0
1739.38,0
1738.55,0
1737.72,0
1736.9,0
1736.07,0
1735.24,0
1734.41,0
1733.58,0
1732.75,0
1731.93,0
1731.1,0
1730.27,0
1729.44,0
1728.61,0
1727.78,0
1726.95,0
1726.12,0
1725.29,0
1724.46,0
1723.63,0
1722.8,0
1721.97,0
1721.14,0
1720.31,0
1719.48,0
1718.65,0
1717.81,0
1716.98,0
1716.15,0
1715.32,0
1714.49,0
1713.66,0
1712.82,0
1711.99,0
1711.16,0
1710.33,0
1709.49,0
1708.66,0
1707.83,0
1707,0
1706.16,0
1705.33,0
1704.5,0
1703.66,0
1702.83,0
1701.99,0
1701.16,0
1700.33,0
1699.49,0
1698.66,0
1697.82,0
1696.99,0
1696.15,0
1695.32,0
1694.48,0
1693.65,0
1692.81,0
1691.98,0
1691.14,0
1690.3,0
1689.47,0
1688.63,0
1687.8,0
1686.96,0
1686.12,0
1685.29,0
1684.45,0
1683.61,0
1682.78,0
1681.94,0
1681.1,0
1680.26,0
1679.43,0
1678.59,0
1677.75,0
1676.91,0
1676.07,0
1675.23,0
1674.4,0
1673.56,0
1672.72,0
1671.88,0
1671.04,0
1670.2,0
1669.36,0
1668.52,0
1667.68,0
1666.84,0
1666,0
1665.16,0.0133802639066287
1664.32,0.0140273003939836
1663.48,0.0146905060637183
1662.64,0.0142868953999142
1661.8,0.0148889541911511
1660.96,0.0154795316528508
1660.12,0.0159675406335156
1659.28,0.0164033690938249
1658.44,0.0169102663179797
1657.59,0.0174291920333306
1656.75,0.0179310146585568
1655.91,0.0183503729431769
1655.07,0.0187211185967118
1654.23,0.0188781408224206
1653.38,0.018799248531552
1652.54,0.0186006557816026
1651.7,0.018334725395557
1650.86,0.0180383145588926
1650.01,0.0178551509882567
1649.17,0.0178429837116379
1648.33,0.0180062700680605
1647.48,0.0181455992251079
1646.64,0.0182614180389274
1645.8,0.0181644358453527
1644.95,0.0178645956343234
1644.11,0.0173974665573154
1643.27,0.0168448620270413
1642.42,0.0163146830629529
1641.58,0.0159465169960673
1640.73,0.0158026536198722
1639.89,0.0158300003224367
1639.04,0.0158599939574237
1638.2,0.0159098932264186
1637.36,0.0158463340471389
1636.51,0.0156801429602289
1635.67,0.0153837520655143
1634.82,0.0151482252731231
1633.97,0.0149753779241903
1633.13,0.0148011395980352
1632.28,0.0146905702449944
1631.44,0.0146024142653308
1630.59,0.0144729054908471
1629.74,0.0143966131977445
1628.9,0.0143517043131011
1628.05,0.0144278843208504
1627.2,0.0146208074897272
1626.36,0.0149850185549212
1625.51,0.015459331997099
1624.66,0.0158299499407633
1623.82,0.016029252550462
1622.97,0.0160676053753051
1622.12,0.016050372516113
1621.27,0.0159915818166381
1620.43,0.0160693370917309
1619.58,0.0163271163986364
1618.73,0.0167980250802266
1617.88,0.0173199087546339
1617.03,0.0179323571448589
1616.19,0.0184792354659393
1615.34,0.019013750772758
1614.49,0.0195168092038377
1613.64,0.0200809796622331
1612.79,0.0182751466315479
1611.94,0.0186867597359704
1611.09,0.0190976119436527
1610.24,0.0197484574606597
1609.39,0.0205907090323449
1608.54,0.0217804461811408
1607.69,0.0233252411171871
1606.84,0.0251289004610629
1605.99,0.0270084615168256
1605.14,0.0288907350634786
1604.29,0.0307257047129451
1603.44,0.0326414162586576
1602.59,0.0347846598501954
1601.74,0.0374024245244895
1600.89,0.0404165466920569
1600.04,0.0438437867338346
1599.18,0.0477412901625763
1598.33,0.0518748086473713
1597.48,0.0562098449284405
1596.63,0.0607780242259713
1595.78,0.0657918799433472
1594.92,0.0713939698195227
1594.07,0.0777348078479366
1593.22,0.0850307696302116
1592.37,0.0934680112170303
1591.51,0.10322165634287
1590.66,0.114604482080362
1589.81,0.127986194653297
1588.96,0.143945556720565
1588.1,0.163404024683266
1587.25,0.18786866587609
1586.39,0.219034382612339
1585.54,0.258915115741541
1584.69,0.309631064938126
1583.83,0.372427434629801
1582.98,0.447290653205869
1582.12,0.532325934669997
1581.27,0.624043343945119
1580.42,0.716981718614546
1579.56,0.804837170012512
1578.71,0.881244252502524
1577.85,0.941265862548147
1576.99,0.981232765915691
1576.14,1
1575.28,0.998120674543024
1574.43,0.978029788371019
1573.57,0.942268306738007
1572.72,0.89408149557933
1571.86,0.836041408423963
1571,0.770833896016353
1570.15,0.700630424963103
1569.29,0.628173394875112
1568.43,0.555563812349403
1567.58,0.485460429778097
1566.72,0.419887500566938
1565.86,0.360800646015272
1565.01,0.308656751649564
1564.15,0.26366694698681
1563.29,0.225441536321499
1562.43,0.193276787465672
1561.58,0.166182927710356
1560.72,0.143619432377635
1559.86,0.125150020885153
1559,0.110554149569408
1558.14,0.0991895144901838
1557.28,0.0907628118652707
1556.42,0.0845796878183211
1555.57,0.0798615682715839
1554.71,0.0761806084201982
1553.85,0.0728734340968936
1552.99,0.0695993503408575
1552.13,0.0662051272188538
1551.27,0.0626757958907843
1550.41,0.059011681708963
1549.55,0.0551245834257618
1548.69,0.0510156298985323
1547.83,0.0467120424226819
1546.97,0.0422373069165192
1546.11,0.0377916742182641
1545.25,0.033574468988982
1544.39,0.0297873650679782
1543.53,0.0264817103625936
1542.66,0.0238089779674993
1541.8,0.0216814886893681
1540.94,0.0198974060949559
1540.08,0.0183594910424824
1539.22,0.0197069601690039
1538.36,0.0182871209771712
1537.49,0.0168279294274709
1536.63,0.0154150244696991
1535.77,0.0155334142636412
1534.91,0.0143656369846786
1534.04,0.0134147467650161
1533.18,0
1532.32,0
1531.46,0
1530.59,0
1529.73,0
1528.87,0
1528,0
1527.14,0
1526.27,0
1525.41,0
1524.55,0
1523.68,0
1522.82,0
1521.95,0
1521.09,0
1520.22,0
1519.36,0
1518.49,0
1517.63,0
1516.76,0
1515.89,0
1515.03,0
1514.16,0
1513.3,0
1512.43,0
1511.56,0
1510.7,0
1509.83,0
1508.96,0
1508.1,0
1507.23,0
1506.36,0
1505.49,0
1504.63,0
1503.76,0
1502.89,0
1502.02,0
1501.15,0
1500.29,0
1499.42,0
1498.55,0
1497.68,0
1496.81,0
1495.94,0
1495.07,0
1494.2,0
1493.33,0
1492.46,0
1491.59,0
1490.72,0
1489.85,0
1488.98,0
1488.11,0
1487.24,0
1486.37,0
1485.5,0
1484.63,0
1483.76,0
1482.88,0
1482.01,0
1481.14,0
1480.27,0
1479.4,0
1478.53,0
1477.65,0.0135219027100685
1476.78,0.0143332511161558
1475.91,0.014709861278318
1475.03,0.0147341863325318
1474.16,0.0141259787818722
1473.29,0.0131144747968584
1472.42,0
1471.54,0
1470.67,0
1469.79,0
1468.92,0
1468.05,0
1467.17,0
1466.3,0
1465.42,0
1464.55,0
1463.67,0
1462.8,0
1461.92,0
1461.05,0
1460.17,0
1459.3,0
1458.42,0
1457.55,0
1456.67,0
1455.79,0
1454.92,0
1454.04,0
1453.17,0
1452.29,0
1451.41,0
1450.53,0
1449.66,0
1448.78,0
1447.9,0
1447.02,0
1446.15,0
1445.27,0
1444.39,0
1443.51,0
1442.63,0
1441.76,0
1440.88,0
1440,0
1439.12,0
1438.24,0
1437.36,0
1436.48,0
1435.6,0
1434.72,0
1433.84,0
1432.96,0
1432.08,0
1431.2,0
1430.32,0
1429.44,0
1428.56,0
1427.68,0
1426.8,0
1425.91,0
1425.03,0
1424.15,0
1423.27,0
1422.39,0
1421.51,0
1420.62,0
1419.74,0
1418.86,0
1417.98,0
1417.09,0
1416.21,0
1415.33,0
1414.44,0
1413.56,0
1412.68,0
1411.79,0
1410.91,0
1410.02,0
1409.14,0
1408.26,0
1407.37,0
1406.49,0
1405.6,0
1404.72,0
1403.83,0
1402.95,0
1402.06,0
1401.18,0
1400.29,0
1399.4,0
1398.52,0
1397.63,0
1396.75,0
1395.86,0
1394.97,0
1394.08,0
1393.2,0
1392.31,0
1391.42,0
1390.54,0
1389.65,0
1388.76,0
1387.87,0
1386.98,0
1386.1,0
1385.21,0
1384.32,0
1383.43,0
1382.54,0
1381.65,0
1380.76,0
1379.87,0
1378.98,0
1378.09,0
1377.21,0
1376.32,0
1375.43,0
1374.53,0
1373.64,0
1372.75,0
1371.86,0
1370.97,0
1370.08,0
1369.19,0
1368.3,0
1367.41,0
1366.52,0
1365.62,0
1364.73,0
1363.84,0
1362.95,0
1362.05,0
1361.16,0
1360.27,0
1359.38,0
1358.48,0
1357.59,0
1356.7,0
1355.8,0
1354.91,0
1354.02,0
1353.12,0
1352.23,0
1351.33,0
1350.44,0
1349.54,0
1348.65,0
1347.75,0
1346.86,0
1345.96,0
1345.07,0
1344.17,0
1343.28,0
1342.38,0
1341.49,0
1340.59,0
1339.69,0
1338.8,0
1337.9,0
1337,0
1336.11,0
1335.21,0
1334.31,0
1333.41,0
1332.52,0
1331.62,0
1330.72,0
1329.82,0
1328.92,0
1328.03,0
1327.13,0
1326.23,0
1325.33,0
1324.43,0
1323.53,0
1322.63,0
1321.73,0
1320.83,0
1319.93,0
1319.03,0
1318.13,0
1317.23,0
1316.33,0
1315.43,0
1314.53,0
1313.63,0
1312.73,0
1311.83,0
1310.93,0
1310.03,0
1309.12,0
1308.22,0
1307.32,0
1306.42,0
1305.52,0
1304.61,0
1303.71,0
1302.81,0
1301.9,0
1301,0
1300.1,0
1299.19,0.0131017042130038
1298.29,0.0133872154077895
1297.39,0.0138351386267392
1296.48,0.0137568270862788
1295.58,0.0135300080857232
1294.68,0
1293.77,0
1292.87,0
1291.96,0
1291.06,0
1290.15,0
1289.25,0
1288.34,0
1287.44,0
1286.53,0
1285.62,0
1284.72,0
1283.81,0
1282.91,0
1282,0
1281.09,0
1280.19,0
1279.28,0
1278.37,0
1277.46,0
1276.56,0
1275.65,0
1274.74,0
1273.83,0
1272.93,0
1272.02,0
1271.11,0
1270.2,0
1269.29,0.013437291681203
1268.38,0.0156533729976073
1267.47,0.0155109722332366
1266.57,0.0172844169442735
1265.66,0.0188240582521256
1264.75,0.0200695819223629
1263.84,0.0211475830137497
1262.93,0.0220072875022521
1262.02,0.0226938021784705
1261.11,0.0231771429360322
1260.2,0.0234779986050105
1259.29,0.0235770085143403
1258.38,0.0234352671979756
1257.47,0.0228364633053049
1256.55,0.0219901692866089
1255.64,0.020681175865689
1254.73,0.0189777935732029
1253.82,0.0169012417904696
1252.91,0.0145504713189913
1252,0.014331684032138
1251.09,0
1250.17,0
1249.26,0
1248.35,0
1247.44,0
1246.52,0
1245.61,0
1244.7,0
1243.78,0
1242.87,0
1241.96,0
1241.04,0
1240.13,0
1239.22,0
1238.3,0
1237.39,0
1236.47,0
1235.56,0
1234.64,0
1233.73,0
1232.81,0
1231.9,0
1230.98,0
1230.07,0
1229.15,0
1228.24,0
1227.32,0
1226.4,0
1225.49,0
1224.57,0
1223.65,0
1222.74,0
1221.82,0
1220.9,0
1219.99,0
1219.07,0
1218.15,0
1217.23,0
1216.31,0
1215.4,0
1214.48,0
1213.56,0
1212.64,0
1211.72,0
1210.8,0
1209.88,0
1208.96,0
1208.05,0
1207.13,0
1206.21,0
1205.29,0
1204.37,0
1203.45,0
1202.53,0
1201.6,0
1200.68,0
1199.76,0
1198.84,0
1197.92,0
1197,0
1196.08,0
1195.16,0
1194.23,0
1193.31,0
1192.39,0.015442930928206
1191.47,0.0231312177126695
1190.54,0.0266393158411946
1189.62,0.0394173951350154
1188.7,0.0549180150043775
1187.78,0.0726860147055587
1186.85,0.0922246672657657
1185.93,0.112527435098198
1185.01,0.13228133248995
1184.08,0.149842606376895
1183.16,0.163870630509581
1182.23,0.172808638873209
1181.31,0.175976538290077
1180.39,0.173037884120166
1179.46,0.164404377485247
1178.54,0.15071216112195
1177.61,0.133301919549158
1176.69,0.11361787904232
1175.76,0.0930891985845801
1174.84,0.0728045621194142
1173.91,0.0541210454966296
1172.98,0.0377491232667761
1172.06,0.0243073195809943
1171.13,0.0207224935200659
1170.21,0.0157766392451391
1169.28,0
1168.35,0
1167.43,0
1166.5,0
1165.57,0
1164.65,0
1163.72,0
1162.79,0
1161.86,0
1160.94,0
1160.01,0
1159.08,0
1158.15,0
1157.22,0
1156.29,0
1155.37,0
1154.44,0
1153.51,0
1152.58,0
1151.65,0
1150.72,0
1149.79,0
1148.86,0
1147.93,0.0134700970773774
1147,0.0140176430460274
1146.07,0.015517792682655
1145.14,0.0146991164660945
1144.21,0.01652340350203
1143.28,0.0186405540610276
1142.35,0.021146896660279
1141.41,0.023864318386034
1140.48,0.0196903858385602
1139.55,0.02263337307934
1138.62,0.0255230981171559
1137.69,0.0283536206475871
1136.76,0.0310954135121373
1135.82,0.0338307436432853
1134.89,0.0366335976545544
1133.96,0.03944498933281
1133.03,0.0424756793129648
1132.09,0.0455533262348246
1131.16,0.0488299364231994
1130.23,0.0521769085446478
1129.29,0.0556711590879464
1128.36,0.0593691547194567
1127.43,0.0634073092324711
1126.49,0.067744678089388
1125.56,0.0724648362320795
1124.62,0.0776730179775011
1123.69,0.0835744325856387
1122.75,0.0899373377016405
1121.82,0.0966926238439066
1120.89,0.10345659613572
1119.95,0.111355280493792
1119.01,0.118696062649348
1118.08,0.125294124568481
1117.14,0.131149815198497
1116.21,0.136301918115366
1115.27,0.141104827330418
1114.34,0.145862755946031
1113.4,0.150899708931752
1112.46,0.156734762982684
1111.53,0.163417475051303
1110.59,0.171207830403134
1109.65,0.179876861176287
1108.72,0.189208010897722
1107.78,0.199231440995838
1106.84,0.209730291383188
1105.9,0.220731224924769
1104.97,0.232524770272419
1104.03,0.245336822007591
1103.09,0.259552112051515
1102.15,0.275081773387972
1101.21,0.29183557426933
1100.28,0.309316547318697
1099.34,0.32674105695458
1098.4,0.343264708916723
1097.46,0.35794881333647
1096.52,0.369973491715399
1095.58,0.379082790976707
1094.64,0.385428309779527
1093.7,0.381505883828657
1092.76,0.393100926357222
1091.82,0.426653420904626
1090.88,0.474657574698407
1089.94,0.520969338864904
1089,0.545484103558426
1088.06,0.528767810053661
1087.12,0.456396428076399
1086.18,0.323199229843299
1085.24,0.164736611407693
1084.29,0
1083.35,0
1082.41,0
1081.47,0
1080.53,0
1079.58,0
1078.64,0
1077.7,0
1076.76,0
1075.81,0
1074.87,0
1073.93,0
1072.98,0
1072.04,0
1071.1,0
1070.15,0.167443073004022
1069.21,0.324238302964727
1068.26,0.449300982067899
1067.32,0.505210479139604
1066.38,0.497693595455291
1065.43,0.443147458134712
1064.49,0.363888794404173
1063.54,0.282939011318968
1062.6,0.219467750741345
1061.65,0.182973007853443
1060.7,0.167987533054017
1059.76,0.148055482822947
1058.81,0.130983413426859
1057.87,0.116053993207876
1056.92,0.102665895127931
1055.97,0.092687208395676
1055.03,0.0835095129218462
1054.08,0.074898818571817
1053.13,0.0669122295004473
1052.19,0.0595512683088189
1051.24,0.0528389554753264
1050.29,0.0468867117086572
1049.34,0.0416425176475146
1048.4,0.0369116856739115
1047.45,0.0327005040636423
1046.5,0.0289630122111895
1045.55,0.0257356866761221
1044.6,0.022906781916269
1043.65,0.0204155473393864
1042.71,0.0181613917815004
1041.76,0.0238313112983756
1040.81,0.0218996990859371
1039.86,0.0200386437445404
1038.91,0.0182002628442318
1037.96,0.0164737972582437
1037.01,0.0149645180844996
1036.06,0.0161323309739685
1035.11,0.0149357217701831
1034.16,0.0138849921774308
1033.21,0.0141682791554403
1032.26,0.0133169082821782
1031.31,0
1030.36,0
1029.4,0
1028.45,0
1027.5,0
1026.55,0
1025.6,0
1024.65,0
1023.69,0
1022.74,0
1021.79,0
1020.84,0
1019.88,0
1018.93,0
1017.98,0.0142826563463827
1017.02,0.0168685734982227
1016.07,0.0225751386527604
1015.12,0.0201843208596965
1014.16,0.0244494294230792
1013.21,0.0265703664094194
1012.25,0.0262455818145471
1011.3,0.0234950911008142
1010.34,0.0188642152762012
1009.39,0.0210381932011995
1008.43,0.0152831234473947
1007.48,0.0138296469891438
1006.52,0
1005.57,0
1004.61,0
1003.66,0
1002.7,0
1001.74,0
1000.79,0
999.832,0
998.875,0
997.919,0
996.962,0
996.004,0
995.047,0
994.089,0
993.132,0
992.174,0
991.216,0
990.258,0
989.299,0
988.341,0
987.382,0
986.423,0
985.464,0
984.505,0
983.545,0
982.586,0
981.626,0
980.666,0
979.706,0
978.746,0
977.785,0
976.824,0
975.864,0
974.903,0
973.941,0
972.98,0
972.019,0
971.057,0
970.095,0
969.133,0
968.171,0
967.209,0
966.246,0
965.283,0
964.32,0
963.357,0
962.394,0
961.431,0
960.467,0
959.503,0
958.54,0
957.575,0
956.611,0
955.647,0
954.682,0
953.717,0
952.752,0
951.787,0
950.822,0
949.857,0
948.891,0
947.925,0
946.959,0
945.993,0
945.026,0
944.06,0
943.093,0
942.126,0
941.159,0
940.192,0
939.225,0
938.257,0
937.289,0
936.322,0
935.353,0
934.385,0
933.417,0
932.448,0
931.479,0
930.51,0
929.541,0
928.572,0
927.602,0
926.633,0
925.663,0
924.693,0
923.723,0
922.752,0
921.782,0
920.811,0
919.84,0
918.869,0
917.898,0
916.926,0
915.955,0
914.983,0
914.011,0
913.039,0
912.067,0
911.094,0
910.122,0
909.149,0
908.176,0
907.203,0
906.229,0
905.256,0
904.282,0
903.308,0
902.334,0
901.36,0
900.386,0
899.411,0
898.436,0
897.461,0
896.486,0
895.511,0
894.536,0
893.56,0
892.584,0
891.608,0
890.632,0
889.656,0
888.679,0
887.702,0
886.726,0
885.748,0
884.771,0
883.794,0
882.816,0
881.839,0
880.861,0
879.882,0
878.904,0
877.926,0
876.947,0
875.968,0
874.989,0
874.01,0
873.031,0
872.051,0
871.072,0
870.092,0
869.112,0
868.131,0
867.151,0
866.17,0
865.19,0
864.209,0
863.228,0
862.246,0
861.265,0
860.283,0
859.301,0
858.319,0
857.337,0
856.355,0
855.372,0
854.389,0
853.407,0
852.424,0
851.44,0
850.457,0
849.473,0
848.489,0
847.505,0
846.521,0
845.537,0
844.552,0
843.568,0
842.583,0
841.598,0
840.613,0
839.627,0
838.642,0
837.656,0
836.67,0
835.684,0
834.698,0
833.711,0.0133741801970873
832.724,0.0135138399520007
831.738,0.0145092802023174
830.751,0.0152767999082596
829.763,0.01590010043228
828.776,0.0146627368429873
827.789,0.0151440102512575
826.801,0.0155836668925897
825.813,0.0160883205144839
824.825,0.0165208312937678
823.837,0.0167393089101149
822.848,0.0166338464852065
821.859,0.0162880566926321
820.871,0.0157975066954525
819.882,0.0151740171204384
818.892,0.0146463831499202
817.903,0.0143374976524371
816.914,0.0158526428437435
815.924,0.0156517410924617
814.934,0.015271086884832
813.944,0.0146371031945407
812.954,0.0137634392629631
811.963,0.0137327512442252
810.973,0
809.982,0
808.991,0
808,0
807.008,0
806.017,0
805.025,0
804.033,0
803.041,0
802.049,0
801.057,0
800.064,0
799.071,0
798.078,0
797.085,0
796.092,0
795.099,0
794.105,0
793.111,0
792.117,0
791.123,0
790.128,0
789.134,0
788.139,0
787.144,0
786.149,0
785.154,0
784.158,0
783.162,0
782.167,0
781.171,0
780.174,0
779.178,0
778.181,0
777.185,0
776.188,0
775.191,0
774.193,0
773.196,0
772.198,0
771.2,0
770.202,0
769.204,0
768.206,0
767.207,0
766.208,0
765.209,0
764.21,0
763.211,0
762.212,0
761.212,0
760.212,0.0130343425836957
759.212,0.0138290374141128
758.212,0.0145489053085504
757.211,0.0175132597042648
756.211,0.0223071721234956
755.21,0.0241539407128982
754.209,0.0362315944491974
753.208,0.0539534254695645
752.207,0.0781042137216177
751.205,0.109015779458248
750.203,0.146754654843967
749.202,0.19053273126147
748.2,0.238944119128576
747.197,0.289621015573606
746.195,0.339020229773937
745.192,0.382786347143078
744.19,0.416057610166822
743.187,0.43465245570691
742.183,0.435566907508972
741.18,0.417835096095816
740.177,0.383416615531519
739.173,0.336092010273564
738.169,0.281310708839158
737.165,0.224741753391065
736.161,0.17141206309375
735.156,0.125044866752072
734.152,0.0873563816047696
733.147,0.0587953880628632
732.142,0.038654200445557
731.137,0.0252334018475495
730.131,0.0224076107813536
729.126,0.0173859089131699
728.12,0.0153064732801407
727.114,0.0138866723593703
726.108,0
725.102,0
724.095,0
723.089,0
722.082,0
721.075,0
720.068,0.0135848927771797
719.06,0.0149617887040153
718.053,0.017746596510847
717.045,0.0208546458106896
716.037,0.0188284352625796
715.029,0.0221645882215122
714.021,0.0252970075305087
713.012,0.0280657035644005
712.004,0.0302488774275411
710.995,0.0317264959934445
709.986,0.0326043626607136
708.977,0.0328281402581078
707.967,0.032423999993086
706.958,0.0313284654757032
705.948,0.0295950345311634
704.938,0.0272470354489503
703.928,0.0244053563727256
702.917,0.0212441352000846
701.907,0.0229653149237359
700.896,0.0200918459770578
699.885,0.0176353731032319
698.874,0.0155304576556035
697.863,0.0146743832415309
696.851,0.0136923605275705
695.84,0
694.828,0
693.816,0
692.804,0
691.791,0
690.779,0
689.766,0
688.753,0
687.74,0
686.727,0
685.713,0
684.7,0
683.686,0
682.672,0
681.658,0
680.643,0
679.629,0
678.614,0
677.599,0
676.584,0
675.568,0
674.553,0
673.537,0
672.521,0
671.505,0
670.489,0
669.472,0
668.456,0
667.439,0
666.422,0
665.405,0
664.387,0
663.37,0
662.352,0
661.334,0
660.316,0
659.297,0
658.279,0
657.26,0
656.241,0
655.222,0
654.203,0
653.183,0
652.164,0
651.144,0
650.124,0
649.104,0
648.083,0
647.063,0
646.042,0
645.021,0
644,0
642.978,0
641.957,0
640.935,0
639.913,0
638.891,0
637.869,0.0145559445652399
636.846,0.0295517097463085
635.824,0.0591124533070047
634.801,0.0975324894706556
633.778,0.139437169493531
632.755,0.177005797262853
631.731,0.202118969182385
630.708,0.209047211511993
629.684,0.196217629937323
628.66,0.167104413533124
627.636,0.128544587609438
626.611,0.0888611798668481
625.587,0.0546953076104633
624.562,0.0299242936905191
623.537,0.0182009056099916
622.512,0
621.487,0
620.461,0
619.436,0
618.41,0
617.384,0
616.357,0
615.331,0
614.304,0
613.277,0
612.25,0
611.223,0
610.196,0
609.168,0
608.141,0
607.113,0
606.084,0
605.056,0
604.028,0
602.999,0
601.97,0
600.941,0
599.912,0
598.882,0
597.852,0
596.823,0
595.793,0
594.762,0
593.732,0
592.701,0
591.671,0
590.64,0
589.608,0
588.577,0
587.545,0
586.514,0
585.482,0
584.45,0
583.417,0
582.385,0
581.352,0
580.319,0
579.286,0
578.253,0
577.219,0
576.186,0
575.152,0
574.118,0
573.083,0
572.049,0.0134098527203849
571.014,0.0163633603264429
569.98,0.0191938784322338
568.945,0.0196304218834305
567.909,0.0219296545224966
566.874,0.0239381368626696
565.838,0.0257165217275925
564.803,0.0271873847358192
563.767,0.028305377864443
562.73,0.0291473853860748
561.694,0.0297716747992578
560.658,0.0301725372957285
559.621,0.0302636900921907
558.584,0.0302770813696401
557.547,0.0303228476322997
556.509,0.030425934182914
555.472,0.0306609564555227
554.434,0.0309952476697181
553.396,0.0314013499164101
552.358,0.0317268313972939
551.32,0.0319063393591365
550.282,0.0318482783172724
549.243,0.0314195433612499
548.204,0.030604011859188
547.165,0.0293946126621144
546.126,0.0277131736277428
545.086,0.0255771274105107
544.047,0.02319247799895
543.007,0.0206629849564595
541.967,0.0182388488100198
540.927,0.0177589785174061
539.886,0.0159695317445753
538.846,0.0145736473863452
537.805,0.0135657569433663
536.764,0
535.723,0
534.681,0
533.64,0
532.598,0
531.556,0
530.514,0
529.472,0.0131722996461804
528.429,0.0136524982927923
527.387,0.0138472096889589
526.344,0.0138576142353018
525.301,0.0138010854915362
524.257,0.0136946229450497
523.214,0.0137212806925386
522.17,0.0137882566301196
521.126,0.0138919225846076
520.082,0.0138676489953193
519.038,0.013949718820071
517.993,0.0139076574559181
516.949,0.0136028393222145
515.904,0
514.859,0
513.814,0
512.768,0
511.723,0
510.677,0
509.631,0
508.585,0
507.538,0
506.492,0
505.445,0
504.398,0
503.351,0
502.303,0
501.256,0
500.208,0
499.16,0
498.112,0
497.063,0
496.015,0
494.966,0
493.917,0
492.868,0
491.819,0
490.769,0
489.72,0
488.67,0
487.62,0
486.569,0
485.519,0
484.468,0
483.417,0
482.366,0
481.315,0
480.263,0
479.212,0
478.16,0
477.108,0
476.055,0
475.003,0
473.95,0
472.897,0
471.844,0
470.791,0
469.738,0
468.684,0
467.63,0
466.576,0
465.522,0
464.468,0
463.413,0
462.358,0
461.303,0
460.248,0
459.193,0
458.137,0
457.081,0
456.025,0
454.969,0
453.913,0
452.856,0
451.799,0
450.742,0
449.685,0.0135006269598468
448.628,0.0148366298742925
447.57,0.0163031296966945
446.512,0.017722766585248
445.454,0.0189237233381864
444.396,0.0191054609757702
443.338,0.0199174281616268
442.279,0.020378201222186
441.221,0.0206226081968162
440.162,0.0204318575282243
439.102,0.0202813480892313
438.043,0.0201479139744305
436.983,0.0200299897192917
435.924,0.0199824101586007
434.864,0.0198229351391179
433.804,0.0195236962901267
432.743,0.0191157875555854
431.683,0.0185090040659454
430.622,0.0189329256467052
429.561,0.0185837222636734
428.5,0.0184284845296459
427.439,0.0184246948067433
426.377,0.0183929171110665
425.315,0.0182862740175612
424.253,0.0181784769402293
423.191,0.0179888386187011
422.129,0.0179643391894092
421.066,0.0180840970480154
420.004,0.0184207095402526
418.941,0.0190097904302204
417.878,0.0189663490038032
416.814,0.020270963006788
415.751,0.0220711439976531
414.687,0.0242933617001768
413.623,0.0270616839310457
412.559,0.0300689298911159
411.495,0.0330422455793618
410.43,0.0356619406052977
409.365,0.0376244833904127
408.301,0.0389202905180168
407.235,0.0394671555839519
406.17,0.0393434363707823
405.105,0.0385732225442818
404.039,0.0371254036673687
402.973,0.0350317676800474
401.907,0.0322305029306439
400.84,0.028659641645812
399.774,0.0246836229206977
398.707,0.0205212993612737
397.64,0.0177437614816782
396.573,0.0151019588852027
395.506,0
394.438,0
393.371,0
392.303,0
391.235,0
390.166,0
389.098,0
388.029,0
386.96,0
385.891,0
384.822,0
383.752,0
382.682,0
381.613,0
380.542,0
379.472,0
378.402,0
377.331,0
376.26,0
375.189,0
374.117,0
373.046,0
371.974,0
370.902,0
369.83,0
368.758,0
367.685,0
366.613,0
365.54,0
364.466,0
363.393,0
362.32,0
361.246,0
360.172,0
359.098,0
358.023,0
356.949,0
355.874,0
354.799,0
353.724,0
352.649,0
351.573,0
350.497,0
349.421,0
348.345,0
347.269,0
346.192,0
345.115,0
344.038,0
342.961,0
341.884,0
340.806,0
339.728,0
338.65,0
337.572,0
336.494,0
335.415,0
334.336,0
333.257,0
332.178,0
331.099,0
330.019,0
328.939,0
327.859,0
326.779,0.013376593746838
325.699,0.0139487337270849
324.618,0.0165524210912495
323.537,0.0156506845520597
322.456,0.0177843559220608
321.375,0.0195772362496783
320.293,0.0213000341076442
319.212,0.0188238671644327
318.13,0.020400093422897
317.048,0.0219844654184769
315.966,0.0235844443709935
314.883,0.0250457540159841
313.8,0.0258893955930454
312.718,0.0260827857056791
311.634,0.0255888002711909
310.551,0.024439452957382
309.468,0.022987400040368
308.384,0.0212242560732221
307.3,0.0194655809862575
306.216,0.0226465108887556
305.132,0.0211448578785208
304.047,0.0197788442595272
302.962,0.0184691785989796
301.877,0.0173497130328937
300.792,0.0164571307991435
299.707,0.0155286409058884
298.621,0.0145112703677431
297.536,0.0179834153347223
296.45,0.0166037101233123
295.364,0.0149608537782744
294.277,0.0162299984866693
293.191,0.0147549503245198
292.104,0.0137722766953662
291.017,0.0133283215295585
289.93,0.013501453831994
288.842,0.0142186572480818
287.755,0.0152167116049934
286.667,0.0164055771711255
285.579,0.0142389522229884
284.491,0.0151831780427352
283.402,0.0160728008831504
282.314,0.0168103692588241
281.225,0.0174859841959211
280.136,0.0180240678899845
279.047,0.0184982149780619
277.957,0.0190566672095863
276.867,0.0195202085502428
275.778,0.0200252104589594
274.688,0.0145580795742817
273.597,0.0151349100380774
272.507,0.0157412241669036
271.416,0.0163818406686742
270.325,0.0171252681373535
269.234,0.0178163323226928
268.143,0.0183508692381083
267.051,0.0186942830269664
265.96,0.0187969924890622
264.868,0.0186858160839342
263.776,0.0182931516559717
262.683,0.0177615365696219
261.591,0.0170852808831328
260.498,0.0163593237377466
259.405,0.0156461412949288
258.312,0.0148216503623738
257.218,0.0211032370078444
256.125,0.0198681819413512
255.031,0.0183280034937835
253.937,0.0164287869366871
252.843,0.0140631999516448
251.748,0.0162601421337022
250.654,0.0133625558799414
249.559,0
248.464,0
247.369,0
246.273,0
245.178,0
244.082,0
242.986,0
241.889,0
240.793,0
239.696,0
238.599,0
237.502,0
236.405,0
235.307,0
234.21,0
233.112,0
232.014,0
230.915,0
229.817,0
228.718,0
227.619,0
226.52,0
225.42,0
224.321,0
223.221,0
222.121,0
221.021,0
219.92,0
218.82,0
217.719,0
216.618,0
215.516,0
214.415,0
213.313,0
212.211,0
211.109,0
210.007,0
208.904,0
207.802,0
206.699,0
205.595,0
204.492,0
203.389,0
202.285,0
201.181,0
200.077,0
198.972,0
197.867,0
196.763,0
195.658,0
194.552,0
193.447,0
192.341,0
191.235,0
190.129,0
189.023,0
187.916,0
186.81,0
185.703,0
184.595,0
183.488,0
182.381,0.0160841090235984
181.273,0.0199039234483894
180.165,0.0141450720464519
179.057,0.0186677373888176
177.948,0.0235644114045674
176.839,0.0287846621480934
175.731,0.0343214372193178
174.622,0.0398332737195023
173.512,0.0450443347314579
172.403,0.0495774893247866
171.293,0.0532330492879652
170.183,0.0557161461999864
169.073,0.0567969119586278
167.963,0.0564474954986315
166.852,0.0548797428808702
165.742,0.0521686622404797
164.631,0.0488402812202116
163.519,0.0450537285106525
162.408,0.0413208286944974
161.296,0.0379112194887265
160.185,0.0352688751815953
159.073,0.0336431527182365
157.96,0.03315530852448
156.848,0.0338391321674627
155.735,0.0357708727994784
154.622,0.0387985423311453
153.509,0.0427174877268013
152.396,0.0472796881453083
151.282,0.052359920698315
150.169,0.057828753241538
149.055,0.0636043157552321
147.941,0.0828189665572844
146.826,0.0891893063404949
145.712,0.095937252466533
144.597,0.102838261866858
143.482,0.11017286931047
142.367,0.11785147708318
141.251,0.125874187610289
140.136,0.13423567041092
139.02,0.143011465702018
137.904,0.151944326452977
136.788,0.160882567325307
135.671,0.169592364346175
134.554,0.178421425642864
133.437,0.187278012843262
132.32,0.196420942606859
131.203,0.205938906321548
130.085,0.216065990418986
128.968,0.226759501261644
127.85,0.237943944763573
126.732,0.249951728862423
125.613,0.262291608850608
124.494,0.275132924895655
123.376,0.288798198299308
122.257,0.303448010413541
121.137,0.319069771974403
120.018,0.335727892171063
118.898,0.353387838698501
117.778,0.371518994782065
116.658,0.389681521287304
115.538,0.407407128263278
114.417,0.424228218858593
113.296,0.439625400831139
112.176,0.452818639706192
111.054,0.463652914262238
109.933,0.47172656717633
108.811,0.476846033531616
107.689,0.478999947722198
106.567,0.478493580231367
105.445,0.476044626442889
104.323,0.472345728951921
103.2,0.467943513292637
102.077,0.463384604999205
100.954,0.459215629605802
