3801.25,0
3800.75,0
3800.24,0
3799.74,0
3799.23,0
3798.73,0
3798.22,0
3797.72,0
3797.21,0
3796.71,0
3796.2,0
3795.69,0
3795.19,0
3794.68,0
3794.18,0
3793.67,0
3793.16,0
3792.66,0
3792.15,0
3791.65,0
3791.14,0
3790.63,0
3790.13,0
3789.62,0
3789.11,0
3788.61,0
3788.1,0
3787.59,0
3787.09,0
3786.58,0
3786.07,0
3785.56,0
3785.06,0
3784.55,0
3784.04,0
3783.53,0
3783.03,0
3782.52,0
3782.01,0
3781.5,0
3780.99,0
3780.49,0
3779.98,0
3779.47,0
3778.96,0
3778.45,0
3777.95,0
3777.44,0
3776.93,0
3776.42,0
3775.91,0
3775.4,0
3774.89,0
3774.39,0
3773.88,0
3773.37,0
3772.86,0
3772.35,0
3771.84,0
3771.33,0
3770.82,0
3770.31,0
3769.8,0
3769.29,0
3768.78,0
3768.27,0
3767.76,0
3767.25,0
3766.74,0
3766.23,0
3765.72,0
3765.21,0
3764.7,0
3764.19,0
3763.68,0
3763.17,0
3762.66,0
3762.15,0
3761.64,0
3761.13,0
3760.62,0
3760.11,0
3759.6,0
3759.08,0
3758.57,0
3758.06,0
3757.55,0
3757.04,0
3756.53,0
3756.02,0
3755.5,0
3754.99,0
3754.48,0
3753.97,0
3753.46,0
3752.95,0
3752.43,0
3751.92,0
3751.41,0
3750.9,0
3750.38,0
3749.87,0
3749.36,0
3748.85,0
3748.33,0
3747.82,0
3747.31,0
3746.8,0
3746.28,0
3745.77,0
3745.26,0
3744.74,0
3744.23,0
3743.72,0
3743.2,0
3742.69,0
3742.18,0
3741.66,0
3741.15,0
3740.64,0
3740.12,0
3739.61,0
3739.09,0
3738.58,0
3738.07,0
3737.55,0
3737.04,0
3736.52,0
3736.01,0
3735.49,0
3734.98,0
3734.46,0
3733.95,0
3733.43,0
3732.92,0
3732.4,0
3731.89,0
3731.37,0
3730.86,0
3730.34,0
3729.83,0
3729.31,0
3728.8,0
3728.28,0
3727.77,0
3727.25,0
3726.74,0
3726.22,0
3725.7,0
3725.19,0
3724.67,0
3724.16,0
3723.64,0
3723.12,0
3722.61,0
3722.09,0
3721.57,0
3721.06,0
3720.54,0
3720.02,0
3719.51,0
3718.99,0
3718.47,0
3717.96,0
3717.44,0
3716.92,0
3716.4,0
3715.89,0
3715.37,0
3714.85,0
3714.33,0
3713.82,0
3713.3,0
3712.78,0
3712.26,0
3711.75,0
3711.23,0
3710.71,0
3710.19,0
3709.67,0
3709.15,0
3708.64,0
3708.12,0
3707.6,0
3707.08,0
3706.56,0
3706.04,0
3705.52,0
3705,0
3704.49,0
3703.97,0
3703.45,0
3702.93,0
3702.41,0
3701.89,0
3701.37,0
3700.85,0
3700.33,0
3699.81,0
3699.29,0
3698.77,0
3698.25,0
3697.73,0
3697.21,0
3696.69,0
3696.17,0
3695.65,0
3695.13,0
3694.61,0
3694.09,0
3693.57,0
3693.05,0
3692.53,0
3692.01,0
3691.49,0
3690.96,0
3690.44,0
3689.92,0
3689.4,0
3688.88,0
3688.36,0
3687.84,0
3687.32,0
3686.79,0
3686.27,0
3685.75,0
3685.23,0
3684.71,0
3684.19,0
3683.66,0
3683.14,0
3682.62,0
3682.1,0
3681.57,0
3681.05,0
3680.53,0
3680.01,0
3679.48,0
3678.96,0
3678.44,0
3677.92,0
3677.39,0
3676.87,0
3676.35,0
3675.82,0
3675.3,0
3674.78,0
3674.25,0
3673.73,0
3673.21,0
3672.68,0
3672.16,0
3671.64,0
3671.11,0
3670.59,0
3670.06,0
3669.54,0
3669.02,0
3668.49,0
3667.97,0
3667.44,0
3666.92,0
3666.39,0
3665.87,0
3665.34,0
3664.82,0
3664.29,0
3663.77,0
3663.24,0
3662.72,0
3662.19,0
3661.67,0
3661.14,0
3660.62,0
3660.09,0
3659.57,0
3659.04,0
3658.52,0
3657.99,0
3657.46,0
3656.94,0
3656.41,0
3655.89,0
3655.36,0
3654.83,0
3654.31,0
3653.78,0
3653.25,0
3652.73,0
3652.2,0
3651.67,0
3651.15,0
3650.62,0
3650.09,0
3649.57,0
3649.04,0
3648.51,0
3647.99,0
3647.46,0
3646.93,0
3646.4,0
3645.88,0
3645.35,0
3644.82,0
3644.29,0
3643.76,0
3643.24,0
3642.71,0
3642.18,0
3641.65,0
3641.12,0
3640.6,0
3640.07,0
3639.54,0
3639.01,0
3638.48,0
3637.95,0
3637.42,0
3636.9,0
3636.37,0
3635.84,0
3635.31,0
3634.78,0
3634.25,0
3633.72,0
3633.19,0
3632.66,0
3632.13,0
3631.6,0
3631.07,0
3630.54,0
3630.01,0
3629.48,0
3628.95,0
3628.42,0
3627.89,0
3627.36,0
3626.83,0
3626.3,0
3625.77,0
3625.24,0
3624.71,0
3624.18,0
3623.65,0
3623.12,0
3622.59,0
3622.06,0
3621.52,0
3620.99,0
3620.46,0
3619.93,0
3619.4,0
3618.87,0
3618.34,0
3617.8,0
3617.27,0
3616.74,0
3616.21,0
3615.68,0
3615.15,0
3614.61,0
3614.08,0
3613.55,0
3613.02,0
3612.48,0
3611.95,0
3611.42,0
3610.89,0
3610.35,0
3609.82,0
3609.29,0
3608.75,0
3608.22,0
3607.69,0
3607.16,0
3606.62,0
3606.09,0
3605.56,0
3605.02,0
3604.49,0
3603.95,0
3603.42,0
3602.89,0
3602.35,0
3601.82,0
3601.29,0
3600.75,0
3600.22,0
3599.68,0
3599.15,0
3598.61,0
3598.08,0
3597.54,0
3597.01,0
3596.47,0
3595.94,0
3595.41,0
3594.87,0
3594.34,0
3593.8,0
3593.26,0
3592.73,0
3592.19,0
3591.66,0
3591.12,0
3590.59,0
3590.05,0
3589.52,0
3588.98,0
3588.44,0
3587.91,0
3587.37,0
3586.84,0
3586.3,0
3585.76,0
3585.23,0
3584.69,0
3584.15,0
3583.62,0
3583.08,0
3582.54,0
3582.01,0
3581.47,0
3580.93,0
3580.4,0
3579.86,0
3579.32,0
3578.78,0
3578.25,0
3577.71,0
3577.17,0
3576.63,0
3576.1,0
3575.56,0
3575.02,0
3574.48,0
3573.94,0
3573.41,0
3572.87,0
3572.33,0
3571.79,0
3571.25,0
3570.71,0
3570.17,0
3569.64,0
3569.1,0
3568.56,0
3568.02,0
3567.48,0
3566.94,0
3566.4,0
3565.86,0
3565.32,0
3564.78,0
3564.24,0
3563.71,0
3563.17,0
3562.63,0
3562.09,0
3561.55,0
3561.01,0
3560.47,0
3559.93,0
3559.39,0
3558.85,0
3558.3,0
3557.76,0
3557.22,0
3556.68,0
3556.14,0
3555.6,0
3555.06,0
3554.52,0
3553.98,0
3553.44,0
3552.9,0
3552.36,0
3551.81,0
3551.27,0
3550.73,0
3550.19,0
3549.65,0
3549.11,0
3548.56,0
3548.02,0
3547.48,0
3546.94,0
3546.4,0
3545.85,0
3545.31,0
3544.77,0
3544.23,0
3543.68,0
3543.14,0
3542.6,0
3542.06,0
3541.51,0
3540.97,0
3540.43,0
3539.88,0
3539.34,0
3538.8,0
3538.26,0
3537.71,0
3537.17,0
3536.62,0
3536.08,0
3535.54,0
3534.99,0
3534.45,0
3533.91,0
3533.36,0
3532.82,0
3532.27,0
3531.73,0
3531.18,0
3530.64,0
3530.1,0
3529.55,0
3529.01,0
3528.46,0
3527.92,0
3527.37,0
3526.83,0
3526.28,0
3525.74,0
3525.19,0
3524.65,0
3524.1,0
3523.56,0
3523.01,0
3522.46,0
3521.92,0
3521.37,0
3520.83,0
3520.28,0
3519.73,0
3519.19,0
3518.64,0
3518.1,0
3517.55,0
3517,0
3516.46,0
3515.91,0
3515.36,0
3514.82,0
3514.27,0
3513.72,0
3513.18,0
3512.63,0
3512.08,0
3511.53,0
3510.99,0
3510.44,0
3509.89,0
3509.34,0
3508.8,0
3508.25,0
3507.7,0
3507.15,0
3506.61,0
3506.06,0
3505.51,0
3504.96,0
3504.41,0
3503.86,0
3503.32,0
3502.77,0
3502.22,0
3501.67,0
3501.12,0
3500.57,0
3500.02,0
3499.47,0
3498.93,0
3498.38,0
3497.83,0
3497.28,0
3496.73,0
3496.18,0
3495.63,0
3495.08,0
3494.53,0
3493.98,0
3493.43,0
3492.88,0
3492.33,0
3491.78,0
3491.23,0
3490.68,0
3490.13,0
3489.58,0
3489.03,0
3488.48,0
3487.93,0
3487.37,0
3486.82,0
3486.27,0
3485.72,0
3485.17,0
3484.62,0
3484.07,0
3483.52,0
3482.97,0
3482.41,0
3481.86,0
3481.31,0
3480.76,0
3480.21,0
3479.65,0
3479.1,0
3478.55,0
3478,0
3477.45,0
3476.89,0
3476.34,0
3475.79,0
3475.24,0
3474.68,0
3474.13,0
3473.58,0
3473.02,0
3472.47,0
3471.92,0
3471.37,0
3470.81,0
3470.26,0
3469.71,0
3469.15,0
3468.6,0
3468.04,0
3467.49,0
3466.94,0
3466.38,0
3465.83,0
3465.28,0
3464.72,0
3464.17,0
3463.61,0
3463.06,0
3462.5,0
3461.95,0
3461.39,0
3460.84,0
3460.28,0
3459.73,0
3459.17,0
3458.62,0
3458.06,0
3457.51,0
3456.95,0
3456.4,0
3455.84,0
3455.29,0
3454.73,0
3454.18,0
3453.62,0
3453.06,0
3452.51,0
3451.95,0
3451.4,0
3450.84,0
3450.28,0
3449.73,0
3449.17,0
3448.61,0
3448.06,0
3447.5,0
3446.94,0
3446.39,0
3445.83,0
3445.27,0
3444.72,0
3444.16,0
3443.6,0
3443.04,0
3442.49,0
3441.93,0
3441.37,0
3440.81,0
3440.26,0
3439.7,0
3439.14,0
3438.58,0
3438.02,0
3437.47,0
3436.91,0
3436.35,0
3435.79,0
3435.23,0
3434.67,0
3434.11,0
3433.56,0
3433,0
3432.44,0
3431.88,0
3431.32,0
3430.76,0
3430.2,0
3429.64,0
3429.08,0
3428.52,0
3427.96,0
3427.4,0
3426.84,0
3426.28,0
3425.72,0
3425.16,0
3424.6,0
3424.04,0
3423.48,0
3422.92,0
3422.36,0
3421.8,0
3421.24,0
3420.68,0
3420.12,0
3419.56,0
3419,0
3418.44,0
3417.88,0
3417.32,0
3416.75,0
3416.19,0
3415.63,0
3415.07,0
3414.51,0
3413.95,0
3413.38,0
3412.82,0
3412.26,0
3411.7,0
3411.14,0
3410.57,0
3410.01,0
3409.45,0
3408.89,0
3408.32,0
3407.76,0
3407.2,0
3406.64,0
3406.07,0
3405.51,0
3404.95,0
3404.38,0
3403.82,0
3403.26,0
3402.69,0
3402.13,0
3401.57,0
3401,0
3400.44,0
3399.88,0
3399.31,0
3398.75,0
3398.18,0
3397.62,0
3397.06,0
3396.49,0
3395.93,0
3395.36,0
3394.8,0
3394.23,0
3393.67,0
3393.1,0
3392.54,0
3391.97,0
3391.41,0
3390.84,0
3390.28,0
3389.71,0
3389.15,0
3388.58,0
3388.02,0
3387.45,0
3386.89,0
3386.32,0
3385.75,0
3385.19,0
3384.62,0
3384.06,0
3383.49,0
3382.92,0
3382.36,0
3381.79,0
3381.22,0
3380.66,0
3380.09,0
3379.52,0
3378.96,0
3378.39,0
3377.82,0
3377.26,0
3376.69,0
3376.12,0
3375.55,0
3374.99,0
3374.42,0
3373.85,0
3373.28,0
3372.72,0
3372.15,0
3371.58,0
3371.01,0
3370.44,0
3369.88,0
3369.31,0
3368.74,0
3368.17,0
3367.6,0
3367.03,0
3366.46,0
3365.9,0
3365.33,0
3364.76,0
3364.19,0
3363.62,0
3363.05,0
3362.48,0
3361.91,0
3361.34,0
3360.77,0
3360.2,0
3359.63,0
3359.06,0
3358.49,0
3357.92,0
3357.35,0
3356.78,0
3356.21,0
3355.64,0
3355.07,0
3354.5,0
3353.93,0
3353.36,0
3352.79,0
3352.22,0
3351.65,0
3351.08,0
3350.5,0
3349.93,0
3349.36,0
3348.79,0
3348.22,0
3347.65,0
3347.08,0
3346.5,0
3345.93,0
3345.36,0
3344.79,0
3344.22,0
3343.64,0
3343.07,0
3342.5,0
3341.93,0
3341.35,0
3340.78,0
3340.21,0
3339.64,0
3339.06,0
3338.49,0
3337.92,0
3337.34,0
3336.77,0
3336.2,0
3335.62,0
3335.05,0
3334.48,0
3333.9,0
3333.33,0
3332.76,0
3332.18,0
3331.61,0
3331.03,0
3330.46,0
3329.89,0
3329.31,0
3328.74,0
3328.16,0
3327.59,0
3327.01,0
3326.44,0
3325.86,0
3325.29,0
3324.71,0
3324.14,0
3323.56,0
3322.99,0
3322.41,0
3321.84,0
3321.26,0
3320.69,0
3320.11,0
3319.54,0
3318.96,0
3318.38,0
3317.81,0
3317.23,0
3316.65,0
3316.08,0
3315.5,0
3314.93,0
3314.35,0
3313.77,0
3313.2,0
3312.62,0
3312.04,0
3311.47,0
3310.89,0
3310.31,0
3309.73,0
3309.16,0
3308.58,0
3308,0
3307.42,0
3306.85,0
3306.27,0
3305.69,0
3305.11,0
3304.53,0
3303.96,0
3303.38,0
3302.8,0
3302.22,0
3301.64,0
3301.06,0
3300.49,0
3299.91,0
3299.33,0
3298.75,0
3298.17,0
3297.59,0
3297.01,0
3296.43,0
3295.85,0
3295.27,0
3294.7,0
3294.12,0
3293.54,0
3292.96,0
3292.38,0
3291.8,0
3291.22,0
3290.64,0
3290.06,0
3289.48,0
3288.9,0
3288.31,0
3287.73,0
3287.15,0
3286.57,0
3285.99,0
3285.41,0
3284.83,0
3284.25,0
3283.67,0
3283.09,0
3282.51,0
3281.92,0
3281.34,0
3280.76,0
3280.18,0
3279.6,0
3279.02,0
3278.43,0
3277.85,0
3277.27,0
3276.69,0
3276.11,0
3275.52,0
3274.94,0
3274.36,0
3273.78,0
3273.19,0
3272.61,0
3272.03,0
3271.44,0
3270.86,0
3270.28,0
3269.69,0
3269.11,0
3268.53,0
3267.94,0
3267.36,0
3266.78,0
3266.19,0
3265.61,0
3265.03,0
3264.44,0
3263.86,0
3263.27,0
3262.69,0
3262.1,0
3261.52,0
3260.94,0
3260.35,0
3259.77,0
3259.18,0
3258.6,0
3258.01,0
3257.43,0
3256.84,0
3256.26,0
3255.67,0
3255.08,0
3254.5,0
3253.91,0
3253.33,0
3252.74,0
3252.16,0
3251.57,0
3250.98,0
3250.4,0
3249.81,0
3249.23,0
3248.64,0
3248.05,0
3247.47,0
3246.88,0
3246.29,0
3245.71,0
3245.12,0
3244.53,0
3243.94,0
3243.36,0
3242.77,0
3242.18,0
3241.6,0
3241.01,0
3240.42,0
3239.83,0
3239.24,0
3238.66,0
3238.07,0
3237.48,0
3236.89,0
3236.3,0
3235.72,0
3235.13,0
3234.54,0
3233.95,0
3233.36,0
3232.77,0
3232.18,0
3231.59,0
3231.01,0
3230.42,0
3229.83,0
3229.24,0
3228.65,0
3228.06,0
3227.47,0
3226.88,0
3226.29,0
3225.7,0
3225.11,0
3224.52,0
3223.93,0
3223.34,0
3222.75,0
3222.16,0
3221.57,0
3220.98,0
3220.39,0
3219.8,0
3219.21,0
3218.61,0
3218.02,0
3217.43,0
3216.84,0
3216.25,0
3215.66,0
3215.07,0
3214.48,0
3213.88,0
3213.29,0
3212.7,0
3212.11,0
3211.52,0
3210.92,0
3210.33,0
3209.74,0
3209.15,0
3208.56,0
3207.96,0
3207.37,0
3206.78,0
3206.18,0
3205.59,0
3205,0
3204.41,0
3203.81,0
3203.22,0
3202.63,0
3202.03,0
3201.44,0
3200.85,0
3200.25,0
3199.66,0
3199.06,0
3198.47,0
3197.88,0
3197.28,0
3196.69,0
3196.09,0
3195.5,0
3194.9,0
3194.31,0
3193.71,0
3193.12,0
3192.52,0
3191.93,0
3191.33,0
3190.74,0
3190.14,0
3189.55,0
3188.95,0
3188.36,0
3187.76,0
3187.17,0
3186.57,0
3185.98,0
3185.38,0
3184.78,0
3184.19,0
3183.59,0
3182.99,0
3182.4,0
3181.8,0
3181.21,0
3180.61,0
3180.01,0
3179.41,0
3178.82,0
3178.22,0
3177.62,0
3177.03,0
3176.43,0
3175.83,0
3175.23,0
3174.64,0
3174.04,0
3173.44,0
3172.84,0
3172.25,0
3171.65,0
3171.05,0
3170.45,0
3169.85,0
3169.25,0
3168.66,0
3168.06,0
3167.46,0
3166.86,0
3166.26,0
3165.66,0
3165.06,0
3164.46,0
3163.86,0
3163.27,0
3162.67,0
3162.07,0
3161.47,0
3160.87,0
3160.27,0
3159.67,0
3159.07,0
3158.47,0
3157.87,0
3157.27,0
3156.67,0
3156.07,0
3155.47,0
3154.87,0
3154.27,0
3153.66,0
3153.06,0
3152.46,0
3151.86,0
3151.26,0
3150.66,0
3150.06,0
3149.46,0
3148.86,0
3148.25,0
3147.65,0
3147.05,0
3146.45,0
3145.85,0
3145.24,0
3144.64,0
3144.04,0
3143.44,0
3142.84,0
3142.23,0
3141.63,0
3141.03,0
3140.42,0
3139.82,0
3139.22,0
3138.62,0
3138.01,0
3137.41,0
3136.81,0
3136.2,0
3135.6,0
3135,0
3134.39,0
3133.79,0
3133.18,0
3132.58,0
3131.98,0
3131.37,0
3130.77,0
3130.16,0
3129.56,0
3128.95,0
3128.35,0
3127.75,0
3127.14,0
3126.54,0
3125.93,0
3125.33,0
3124.72,0
3124.12,0
3123.51,0
3122.9,0
3122.3,0
3121.69,0
3121.09,0
3120.48,0
3119.88,0
3119.27,0
3118.66,0
3118.06,0
3117.45,0
3116.85,0
3116.24,0
3115.63,0
3115.03,0
3114.42,0
3113.81,0
3113.21,0
3112.6,0
3111.99,0
3111.38,0
3110.78,0
3110.17,0
3109.56,0
3108.95,0
3108.35,0
3107.74,0
3107.13,0
3106.52,0
3105.92,0
3105.31,0
3104.7,0
3104.09,0
3103.48,0
3102.87,0
3102.27,0
3101.66,0
3101.05,0
3100.44,0
3099.83,0
3099.22,0
3098.61,0
3098,0
3097.39,0
3096.78,0
3096.17,0
3095.57,0
3094.96,0
3094.35,0
3093.74,0
3093.13,0
3092.52,0
3091.91,0
3091.3,0
3090.69,0
3090.07,0
3089.46,0
3088.85,0
3088.24,0
3087.63,0
3087.02,0
3086.41,0
3085.8,0
3085.19,0
3084.58,0
3083.97,0
3083.35,0
3082.74,0
3082.13,0
3081.52,0
3080.91,0
3080.3,0
3079.68,0
3079.07,0
3078.46,0
3077.85,0
3077.23,0
3076.62,0
3076.01,0
3075.4,0
3074.78,0
3074.17,0
3073.56,0
3072.95,0
3072.33,0
3071.72,0
3071.11,0
3070.49,0
3069.88,0
3069.27,0
3068.65,0
3068.04,0
3067.42,0
3066.81,0
3066.2,0
3065.58,0
3064.97,0
3064.35,0
3063.74,0
3063.12,0.00913926658912832
3062.51,0.00960248963197858
3061.89,0.0104142062543906
3061.28,0.0112497948081929
3060.66,0.0121234881980997
3060.05,0.0130875250093406
3059.43,0.0141479236698944
3058.82,0.0147750189536142
3058.2,0.0159704753600468
3057.59,0.0171429288969344
3056.97,0.0182127616353875
3056.36,0.0190756303654794
3055.74,0.0196806579643202
3055.13,0.0200100526688365
3054.51,0.0200972148377974
3053.89,0.0199558591771871
3053.28,0.0196340016778373
3052.66,0.0191538521374503
3052.05,0.0186267413254011
3051.43,0.0180372449612304
3050.81,0.017434916798379
3050.2,0.0168486108305405
3049.58,0.0162272221105386
3048.96,0.015546686261267
3048.35,0.0148258730658064
3047.73,0.0145399109598592
3047.11,0.0137406810978078
3046.5,0.0129433381940341
3045.88,0.0122225864042653
3045.26,0.0115557337709939
3044.64,0.010965035289393
3044.03,0.0104921391020941
3043.41,0.010117353431925
3042.79,0.0097866172635002
3042.17,0.00985483605546959
3041.56,0.00957106265369819
3040.94,0.00926583973423526
3040.32,0.00896165455367376
3039.7,0
3039.08,0
3038.47,0
3037.85,0
3037.23,0
3036.61,0
3035.99,0
3035.37,0
3034.75,0
3034.14,0
3033.52,0
3032.9,0
3032.28,0
3031.66,0
3031.04,0
3030.42,0
3029.8,0
3029.18,0
3028.56,0
3027.94,0
3027.32,0
3026.7,0
3026.08,0
3025.46,0
3024.84,0
3024.22,0
3023.6,0
3022.98,0
3022.36,0
3021.74,0
3021.11,0
3020.49,0
3019.87,0
3019.25,0
3018.63,0
3018.01,0
3017.39,0
3016.77,0
3016.14,0
3015.52,0
3014.9,0
3014.28,0
3013.66,0
3013.03,0
3012.41,0
3011.79,0
3011.17,0
3010.54,0
3009.92,0
3009.3,0
3008.68,0
3008.05,0
3007.43,0
3006.81,0
3006.18,0
3005.56,0
3004.94,0
3004.31,0
3003.69,0
3003.07,0
3002.44,0
3001.82,0
3001.19,0
3000.57,0
2999.95,0
2999.32,0
2998.7,0
2998.07,0
2997.45,0
2996.82,0
2996.2,0
2995.57,0
2994.95,0
2994.32,0
2993.7,0
2993.07,0
2992.45,0
2991.82,0
2991.2,0
2990.57,0
2989.95,0
2989.32,0
2988.69,0
2988.07,0
2987.44,0
2986.82,0
2986.19,0
2985.56,0
2984.94,0
2984.31,0
2983.68,0
2983.06,0
2982.43,0
2981.8,0
2981.18,0
2980.55,0
2979.92,0
2979.29,0
2978.67,0
2978.04,0
2977.41,0
2976.78,0
2976.16,0
2975.53,0
2974.9,0
2974.27,0
2973.64,0
2973.01,0
2972.39,0
2971.76,0
2971.13,0
2970.5,0
2969.87,0
2969.24,0
2968.61,0
2967.98,0
2967.36,0
2966.73,0
2966.1,0
2965.47,0
2964.84,0
2964.21,0
2963.58,0
2962.95,0
2962.32,0
2961.69,0
2961.06,0
2960.43,0
2959.8,0
2959.17,0
2958.54,0
2957.91,0
2957.27,0
2956.64,0
2956.01,0
2955.38,0
2954.75,0
2954.12,0
2953.49,0
2952.86,0
2952.23,0
2951.59,0
2950.96,0
2950.33,0
2949.7,0
2949.07,0
2948.43,0
2947.8,0
2947.17,0
2946.54,0
2945.9,0
2945.27,0
2944.64,0
2944.01,0
2943.37,0
2942.74,0
2942.11,0
2941.47,0
2940.84,0
2940.21,0
2939.57,0
2938.94,0
2938.31,0
2937.67,0
2937.04,0
2936.41,0
2935.77,0
2935.14,0
2934.5,0
2933.87,0
2933.23,0
2932.6,0
2931.96,0
2931.33,0
2930.69,0
2930.06,0
2929.42,0
2928.79,0
2928.15,0
2927.52,0
2926.88,0
2926.25,0
2925.61,0
2924.98,0
2924.34,0
2923.71,0
2923.07,0
2922.43,0
2921.8,0
2921.16,0
2920.52,0
2919.89,0
2919.25,0
2918.61,0
2917.98,0
2917.34,0
2916.7,0
2916.07,0
2915.43,0
2914.79,0
2914.15,0
2913.52,0
2912.88,0
2912.24,0
2911.6,0
2910.97,0
2910.33,0
2909.69,0
2909.05,0
2908.41,0
2907.77,0
2907.14,0
2906.5,0
2905.86,0
2905.22,0
2904.58,0
2903.94,0
2903.3,0
2902.66,0
2902.02,0
2901.39,0
2900.75,0
2900.11,0
2899.47,0
2898.83,0
2898.19,0
2897.55,0
2896.91,0
2896.27,0
2895.63,0
2894.99,0
2894.35,0
2893.71,0
2893.06,0
2892.42,0
2891.78,0
2891.14,0
2890.5,0
2889.86,0
2889.22,0
2888.58,0
2887.94,0
2887.29,0
2886.65,0
2886.01,0
2885.37,0
2884.73,0
2884.08,0
2883.44,0
2882.8,0
2882.16,0
2881.52,0
2880.87,0
2880.23,0
2879.59,0
2878.94,0
2878.3,0
2877.66,0
2877.02,0
2876.37,0
2875.73,0
2875.09,0
2874.44,0
2873.8,0
2873.15,0
2872.51,0
2871.87,0
2871.22,0
2870.58,0
2869.93,0
2869.29,0
2868.65,0
2868,0
2867.36,0
2866.71,0
2866.07,0
2865.42,0
2864.78,0
2864.13,0
2863.49,0
2862.84,0
2862.2,0
2861.55,0
2860.9,0
2860.26,0
2859.61,0
2858.97,0
2858.32,0
2857.67,0
2857.03,0
2856.38,0
2855.74,0
2855.09,0
2854.44,0
2853.8,0
2853.15,0
2852.5,0
2851.85,0
2851.21,0
2850.56,0
2849.91,0
2849.27,0
2848.62,0
2847.97,0
2847.32,0
2846.67,0
2846.03,0
2845.38,0
2844.73,0
2844.08,0
2843.43,0
2842.79,0
2842.14,0
2841.49,0
2840.84,0
2840.19,0
2839.54,0
2838.89,0
2838.24,0
2837.59,0
2836.94,0
2836.3,0
2835.65,0
2835,0
2834.35,0
2833.7,0
2833.05,0
2832.4,0
2831.75,0
2831.1,0
2830.45,0
2829.8,0
2829.14,0
2828.49,0
2827.84,0
2827.19,0
2826.54,0
2825.89,0
2825.24,0
2824.59,0
2823.94,0
2823.28,0
2822.63,0
2821.98,0
2821.33,0
2820.68,0
2820.03,0
2819.37,0
2818.72,0
2818.07,0
2817.42,0
2816.76,0
2816.11,0
2815.46,0
2814.81,0
2814.15,0
2813.5,0
2812.85,0
2812.19,0
2811.54,0
2810.89,0
2810.23,0
2809.58,0
2808.93,0
2808.27,0
2807.62,0
2806.96,0
2806.31,0
2805.66,0
2805,0
2804.35,0
2803.69,0
2803.04,0
2802.38,0
2801.73,0
2801.07,0
2800.42,0
2799.76,0
2799.11,0
2798.45,0
2797.8,0
2797.14,0
2796.49,0
2795.83,0
2795.17,0
2794.52,0
2793.86,0
2793.21,0
2792.55,0
2791.89,0
2791.24,0
2790.58,0
2789.92,0
2789.27,0
2788.61,0
2787.95,0
2787.3,0
2786.64,0
2785.98,0
2785.32,0
2784.67,0
2784.01,0
2783.35,0
2782.69,0
2782.04,0
2781.38,0
2780.72,0
2780.06,0
2779.4,0
2778.74,0
2778.09,0
2777.43,0
2776.77,0
2776.11,0
2775.45,0
2774.79,0
2774.13,0
2773.47,0
2772.81,0
2772.15,0
2771.49,0
2770.84,0
2770.18,0
2769.52,0
2768.86,0
2768.2,0
2767.54,0
2766.87,0
2766.21,0
2765.55,0
2764.89,0
2764.23,0
2763.57,0
2762.91,0
2762.25,0
2761.59,0
2760.93,0
2760.27,0
2759.6,0
2758.94,0
2758.28,0
2757.62,0
2756.96,0
2756.3,0
2755.63,0
2754.97,0
2754.31,0
2753.65,0
2752.98,0
2752.32,0
2751.66,0
2751,0
2750.33,0
2749.67,0
2749.01,0
2748.34,0
2747.68,0
2747.02,0
2746.35,0
2745.69,0
2745.03,0
2744.36,0
2743.7,0
2743.04,0
2742.37,0
2741.71,0
2741.04,0
2740.38,0
2739.71,0
2739.05,0
2738.38,0
2737.72,0
2737.05,0
2736.39,0
2735.72,0
2735.06,0
2734.39,0
2733.73,0
2733.06,0
2732.4,0
2731.73,0
2731.07,0
2730.4,0
2729.73,0
2729.07,0
2728.4,0
2727.73,0
2727.07,0
2726.4,0
2725.73,0
2725.07,0
2724.4,0
2723.73,0
2723.07,0
2722.4,0
2721.73,0
2721.06,0
2720.4,0
2719.73,0
2719.06,0
2718.39,0
2717.73,0
2717.06,0
2716.39,0
2715.72,0
2715.05,0
2714.38,0
2713.72,0
2713.05,0
2712.38,0
2711.71,0
2711.04,0
2710.37,0
2709.7,0
2709.03,0
2708.36,0
2707.69,0
2707.02,0
2706.35,0
2705.68,0
2705.01,0
2704.34,0
2703.67,0
2703,0
2702.33,0
2701.66,0
2700.99,0
2700.32,0
2699.65,0
2698.98,0
2698.31,0
2697.64,0
2696.97,0
2696.29,0
2695.62,0
2694.95,0
2694.28,0
2693.61,0
2692.94,0
2692.26,0
2691.59,0
2690.92,0
2690.25,0
2689.58,0
2688.9,0
2688.23,0
2687.56,0
2686.88,0
2686.21,0
2685.54,0
2684.87,0
2684.19,0
2683.52,0
2682.85,0
2682.17,0
2681.5,0
2680.82,0
2680.15,0
2679.48,0
2678.8,0
2678.13,0
2677.45,0
2676.78,0
2676.1,0
2675.43,0
2674.76,0
2674.08,0
2673.41,0
2672.73,0
2672.06,0
2671.38,0
2670.7,0
2670.03,0
2669.35,0
2668.68,0
2668,0
2667.33,0
2666.65,0
2665.97,0
2665.3,0
2664.62,0
2663.95,0
2663.27,0
2662.59,0
2661.92,0
2661.24,0
2660.56,0
2659.88,0
2659.21,0
2658.53,0
2657.85,0
2657.17,0
2656.5,0
2655.82,0
2655.14,0
2654.46,0
2653.79,0
2653.11,0
2652.43,0
2651.75,0
2651.07,0
2650.39,0
2649.72,0
2649.04,0
2648.36,0
2647.68,0
2647,0
2646.32,0
2645.64,0
2644.96,0
2644.28,0
2643.6,0
2642.92,0
2642.24,0
2641.56,0
2640.88,0
2640.2,0
2639.52,0
2638.84,0
2638.16,0
2637.48,0
2636.8,0
2636.12,0
2635.44,0
2634.76,0
2634.08,0
2633.39,0
2632.71,0
2632.03,0
2631.35,0
2630.67,0
2629.99,0
2629.3,0
2628.62,0
2627.94,0
2627.26,0
2626.58,0
2625.89,0
2625.21,0
2624.53,0
2623.85,0
2623.16,0
2622.48,0
2621.8,0
2621.11,0
2620.43,0
2619.75,0
2619.06,0
2618.38,0
2617.7,0
2617.01,0
2616.33,0
2615.64,0
2614.96,0
2614.28,0
2613.59,0
2612.91,0
2612.22,0
2611.54,0
2610.85,0
2610.17,0
2609.48,0
2608.8,0
2608.11,0
2607.43,0
2606.74,0
2606.06,0
2605.37,0
2604.68,0
2604,0
2603.31,0
2602.63,0
2601.94,0
2601.25,0
2600.57,0
2599.88,0
2599.19,0
2598.51,0
2597.82,0
2597.13,0
2596.45,0
2595.76,0
2595.07,0
2594.38,0
2593.7,0
2593.01,0
2592.32,0
2591.63,0
2590.95,0
2590.26,0
2589.57,0
2588.88,0
2588.19,0
2587.5,0
2586.82,0
2586.13,0
2585.44,0
2584.75,0
2584.06,0
2583.37,0
2582.68,0
2581.99,0
2581.3,0
2580.61,0
2579.92,0
2579.23,0
2578.54,0
2577.85,0
2577.16,0
2576.47,0
2575.78,0
2575.09,0
2574.4,0
2573.71,0
2573.02,0
2572.33,0
2571.64,0
2570.95,0
2570.26,0
2569.56,0
2568.87,0
2568.18,0
2567.49,0
2566.8,0
2566.11,0
2565.41,0
2564.72,0
2564.03,0
2563.34,0
2562.64,0
2561.95,0
2561.26,0
2560.57,0
2559.87,0
2559.18,0
2558.49,0
2557.79,0
2557.1,0
2556.41,0
2555.71,0
2555.02,0
2554.33,0
2553.63,0
2552.94,0
2552.24,0
2551.55,0
2550.86,0
2550.16,0
2549.47,0
2548.77,0
2548.08,0
2547.38,0
2546.69,0
2545.99,0
2545.3,0
2544.6,0
2543.91,0
2543.21,0
2542.51,0
2541.82,0
2541.12,0
2540.43,0
2539.73,0
2539.03,0
2538.34,0
2537.64,0
2536.95,0
2536.25,0
2535.55,0
2534.86,0
2534.16,0
2533.46,0
2532.76,0
2532.07,0
2531.37,0
2530.67,0
2529.97,0
2529.28,0
2528.58,0
2527.88,0
2527.18,0
2526.48,0
2525.79,0
2525.09,0
2524.39,0
2523.69,0
2522.99,0
2522.29,0
2521.59,0
2520.89,0
2520.19,0
2519.5,0
2518.8,0
2518.1,0
2517.4,0
2516.7,0
2516,0
2515.3,0
2514.6,0
2513.9,0
2513.2,0
2512.5,0
2511.8,0
2511.09,0
2510.39,0
2509.69,0
2508.99,0
2508.29,0
2507.59,0
2506.89,0
2506.19,0
2505.49,0
2504.78,0
2504.08,0
2503.38,0
2502.68,0
2501.98,0
2501.27,0
2500.57,0
2499.87,0
2499.17,0
2498.46,0
2497.76,0
2497.06,0
2496.35,0
2495.65,0
2494.95,0
2494.25,0
2493.54,0
2492.84,0
2492.13,0
2491.43,0
2490.73,0
2490.02,0
2489.32,0
2488.61,0
2487.91,0
2487.21,0
2486.5,0
2485.8,0
2485.09,0
2484.39,0
2483.68,0
2482.98,0
2482.27,0
2481.57,0
2480.86,0
2480.15,0
2479.45,0
2478.74,0
2478.04,0
2477.33,0
2476.62,0
2475.92,0
2475.21,0
2474.51,0
2473.8,0
2473.09,0
2472.39,0
2471.68,0
2470.97,0
2470.26,0
2469.56,0
2468.85,0
2468.14,0
2467.43,0
2466.73,0
2466.02,0
2465.31,0
2464.6,0
2463.89,0
2463.19,0
2462.48,0
2461.77,0
2461.06,0
2460.35,0
2459.64,0
2458.93,0
2458.22,0
2457.52,0
2456.81,0
2456.1,0
2455.39,0
2454.68,0
2453.97,0
2453.26,0
2452.55,0
2451.84,0
2451.13,0
2450.42,0
2449.71,0
2449,0
2448.28,0
2447.57,0
2446.86,0
2446.15,0
2445.44,0
2444.73,0
2444.02,0
2443.31,0
2442.59,0
2441.88,0
2441.17,0
2440.46,0
2439.75,0
2439.04,0
2438.32,0
2437.61,0
2436.9,0
2436.19,0
2435.47,0
2434.76,0
2434.05,0
2433.33,0
2432.62,0
2431.91,0
2431.19,0
2430.48,0
2429.77,0
2429.05,0
2428.34,0
2427.62,0
2426.91,0
2426.2,0
2425.48,0
2424.77,0
2424.05,0
2423.34,0
2422.62,0
2421.91,0
2421.19,0
2420.48,0
2419.76,0
2419.05,0
2418.33,0
2417.62,0
2416.9,0
2416.18,0
2415.47,0
2414.75,0
2414.04,0
2413.32,0
2412.6,0
2411.89,0
2411.17,0
2410.45,0
2409.74,0
2409.02,0
2408.3,0
2407.58,0
2406.87,0
2406.15,0
2405.43,0
2404.71,0
2404,0
2403.28,0
2402.56,0
2401.84,0
2401.12,0
2400.41,0
2399.69,0
2398.97,0
2398.25,0
2397.53,0
2396.81,0
2396.09,0
2395.37,0
2394.65,0
2393.94,0
2393.22,0
2392.5,0
2391.78,0
2391.06,0
2390.34,0
2389.62,0
2388.9,0
2388.18,0
2387.46,0
2386.73,0
2386.01,0
2385.29,0
2384.57,0
2383.85,0
2383.13,0
2382.41,0
2381.69,0
2380.97,0
2380.24,0
2379.52,0
2378.8,0
2378.08,0
2377.36,0
2376.63,0
2375.91,0
2375.19,0
2374.47,0
2373.74,0
2373.02,0
2372.3,0
2371.58,0
2370.85,0
2370.13,0
2369.41,0
2368.68,0
2367.96,0
2367.23,0
2366.51,0
2365.79,0
2365.06,0
2364.34,0
2363.61,0
2362.89,0
2362.16,0
2361.44,0
2360.72,0
2359.99,0
2359.27,0
2358.54,0
2357.81,0
2357.09,0
2356.36,0
2355.64,0
2354.91,0
2354.19,0
2353.46,0
2352.73,0
2352.01,0
2351.28,0
2350.56,0
2349.83,0
2349.1,0
2348.38,0
2347.65,0
2346.92,0
2346.19,0
2345.47,0
2344.74,0
2344.01,0
2343.29,0
2342.56,0
2341.83,0
2341.1,0
2340.37,0
2339.65,0
2338.92,0
2338.19,0
2337.46,0
2336.73,0
2336,0
2335.27,0
2334.54,0
2333.82,0
2333.09,0
2332.36,0
2331.63,0
2330.9,0
2330.17,0
2329.44,0
2328.71,0
2327.98,0
2327.25,0
2326.52,0
2325.79,0
2325.06,0
2324.33,0
2323.59,0
2322.86,0
2322.13,0
2321.4,0
2320.67,0
2319.94,0
2319.21,0
2318.48,0
2317.74,0
2317.01,0
2316.28,0
2315.55,0
2314.82,0
2314.08,0
2313.35,0
2312.62,0
2311.89,0
2311.15,0
2310.42,0
2309.69,0
2308.95,0
2308.22,0
2307.49,0
2306.75,0
2306.02,0
2305.29,0
2304.55,0
2303.82,0
2303.08,0
2302.35,0
2301.62,0
2300.88,0
2300.15,0
2299.41,0
2298.68,0
2297.94,0
2297.21,0
2296.47,0
2295.74,0
2295,0
2294.27,0
2293.53,0
2292.79,0
2292.06,0
2291.32,0
2290.59,0
2289.85,0
2289.11,0
2288.38,0
2287.64,0
2286.9,0
2286.17,0
2285.43,0
2284.69,0
2283.96,0
2283.22,0
2282.48,0
2281.74,0
2281.01,0
2280.27,0
2279.53,0
2278.79,0
2278.05,0
2277.32,0
2276.58,0
2275.84,0
2275.1,0
2274.36,0
2273.62,0
2272.88,0
2272.14,0
2271.4,0
2270.67,0
2269.93,0
2269.19,0
2268.45,0
2267.71,0
2266.97,0
2266.23,0
2265.49,0
2264.75,0
2264.01,0
2263.26,0
2262.52,0
2261.78,0
2261.04,0
2260.3,0
2259.56,0
2258.82,0
2258.08,0
2257.34,0
2256.59,0
2255.85,0
2255.11,0
2254.37,0
2253.63,0
2252.88,0
2252.14,0
2251.4,0
2250.66,0
2249.91,0
2249.17,0
2248.43,0
2247.68,0
2246.94,0
2246.2,0
2245.45,0
2244.71,0
2243.97,0
2243.22,0
2242.48,0
2241.74,0
2240.99,0
2240.25,0
2239.5,0
2238.76,0
2238.01,0
2237.27,0
2236.52,0
2235.78,0
2235.03,0
2234.29,0
2233.54,0
2232.8,0
2232.05,0
2231.31,0
2230.56,0
2229.81,0
2229.07,0
2228.32,0
2227.57,0
2226.83,0
2226.08,0
2225.33,0
2224.59,0
2223.84,0
2223.09,0
2222.35,0
2221.6,0
2220.85,0
2220.1,0
2219.36,0
2218.61,0
2217.86,0
2217.11,0
2216.36,0
2215.62,0
2214.87,0
2214.12,0
2213.37,0
2212.62,0
2211.87,0
2211.12,0
2210.37,0
2209.62,0
2208.87,0
2208.13,0
2207.38,0
2206.63,0
2205.88,0
2205.13,0
2204.38,0
2203.63,0
2202.87,0
2202.12,0
2201.37,0
2200.62,0
2199.87,0
2199.12,0
2198.37,0
2197.62,0
2196.87,0
2196.12,0
2195.36,0
2194.61,0
2193.86,0
2193.11,0
2192.36,0
2191.6,0
2190.85,0
2190.1,0
2189.35,0
2188.59,0
2187.84,0
2187.09,0
2186.33,0
2185.58,0
2184.83,0
2184.07,0
2183.32,0
2182.57,0
2181.81,0
2181.06,0
2180.3,0
2179.55,0
2178.8,0
2178.04,0
2177.29,0
2176.53,0
2175.78,0
2175.02,0
2174.27,0
2173.51,0
2172.76,0
2172,0
2171.25,0
2170.49,0
2169.73,0
2168.98,0
2168.22,0
2167.47,0
2166.71,0
2165.95,0
2165.2,0
2164.44,0
2163.68,0
2162.93,0
2162.17,0
2161.41,0
2160.65,0
2159.9,0
2159.14,0
2158.38,0
2157.62,0
2156.87,0
2156.11,0
2155.35,0
2154.59,0
2153.83,0
2153.07,0
2152.32,0
2151.56,0
2150.8,0
2150.04,0
2149.28,0
2148.52,0
2147.76,0
2147,0
2146.24,0
2145.48,0
2144.72,0
2143.96,0
2143.2,0
2142.44,0
2141.68,0
2140.92,0
2140.16,0
2139.4,0
2138.64,0
2137.88,0
2137.11,0
2136.35,0
2135.59,0
2134.83,0
2134.07,0
2133.31,0
2132.54,0
2131.78,0
2131.02,0
2130.26,0
2129.5,0
2128.73,0
2127.97,0
2127.21,0
2126.44,0
2125.68,0
2124.92,0
2124.16,0
2123.39,0
2122.63,0
2121.86,0
2121.1,0
2120.34,0
2119.57,0
2118.81,0
2118.04,0
2117.28,0
2116.51,0
2115.75,0
2114.99,0
2114.22,0
2113.46,0
2112.69,0
2111.92,0
2111.16,0
2110.39,0
2109.63,0
2108.86,0
2108.1,0
2107.33,0
2106.56,0
2105.8,0
2105.03,0
2104.26,0
2103.5,0
2102.73,0
2101.96,0
2101.2,0
2100.43,0
2099.66,0
2098.89,0
2098.13,0
2097.36,0
2096.59,0
2095.82,0
2095.06,0
2094.29,0
2093.52,0
2092.75,0
2091.98,0
2091.21,0
2090.44,0
2089.67,0
2088.91,0
2088.14,0
2087.37,0
2086.6,0
2085.83,0
2085.06,0
2084.29,0
2083.52,0
2082.75,0
2081.98,0
2081.21,0
2080.44,0
2079.67,0
2078.9,0
2078.12,0
2077.35,0
2076.58,0
2075.81,0
2075.04,0
2074.27,0
2073.5,0
2072.72,0
2071.95,0
2071.18,0
2070.41,0
2069.64,0
2068.86,0
2068.09,0
2067.32,0
2066.55,0
2065.77,0
2065,0
2064.23,0
2063.45,0
2062.68,0
2061.91,0
2061.13,0
2060.36,0
2059.58,0
2058.81,0
2058.04,0
2057.26,0
2056.49,0
2055.71,0
2054.94,0
2054.16,0
2053.39,0
2052.61,0
2051.84,0
2051.06,0
2050.29,0
2049.51,0
2048.73,0
2047.96,0
2047.18,0
2046.41,0
2045.63,0
2044.85,0
2044.08,0
2043.3,0
2042.52,0
2041.75,0
2040.97,0
2040.19,0
2039.42,0
2038.64,0
2037.86,0
2037.08,0
2036.31,0
2035.53,0
2034.75,0
2033.97,0
2033.19,0
2032.41,0
2031.64,0
2030.86,0
2030.08,0
2029.3,0
2028.52,0
2027.74,0
2026.96,0
2026.18,0
2025.4,0
2024.62,0
2023.84,0
2023.06,0
2022.28,0
2021.5,0
2020.72,0
2019.94,0
2019.16,0
2018.38,0
2017.6,0
2016.82,0
2016.04,0
2015.25,0
2014.47,0
2013.69,0
2012.91,0
2012.13,0
2011.35,0
2010.56,0
2009.78,0
2009,0
2008.22,0
2007.43,0
2006.65,0
2005.87,0
2005.09,0
2004.3,0
2003.52,0
2002.74,0
2001.95,0
2001.17,0
2000.39,0
1999.6,0
1998.82,0
1998.03,0
1997.25,0
1996.46,0
1995.68,0
1994.9,0
1994.11,0
1993.33,0
1992.54,0
1991.75,0
1990.97,0
1990.18,0
1989.4,0
1988.61,0
1987.83,0
1987.04,0
1986.25,0
1985.47,0
1984.68,0
1983.9,0
1983.11,0
1982.32,0
1981.54,0
1980.75,0
1979.96,0
1979.17,0
1978.39,0
1977.6,0
1976.81,0
1976.02,0
1975.24,0
1974.45,0
1973.66,0
1972.87,0
1972.08,0
1971.29,0
1970.5,0
1969.72,0
1968.93,0
1968.14,0
1967.35,0
1966.56,0
1965.77,0
1964.98,0
1964.19,0
1963.4,0
1962.61,0
1961.82,0
1961.03,0
1960.24,0
1959.45,0
1958.66,0
1957.87,0
1957.08,0
1956.28,0
1955.49,0
1954.7,0
1953.91,0
1953.12,0
1952.33,0
1951.54,0
1950.74,0
1949.95,0
1949.16,0
1948.37,0
1947.57,0
1946.78,0
1945.99,0
1945.2,0
1944.4,0
1943.61,0
1942.82,0
1942.02,0
1941.23,0
1940.43,0
1939.64,0
1938.85,0
1938.05,0
1937.26,0
1936.46,0
1935.67,0
1934.87,0
1934.08,0
1933.28,0
1932.49,0
1931.69,0
1930.9,0
1930.1,0
1929.31,0
1928.51,0
1927.72,0
1926.92,0
1926.12,0
1925.33,0
1924.53,0
1923.73,0
1922.94,0
1922.14,0
1921.34,0
1920.55,0
1919.75,0
1918.95,0
1918.16,0
1917.36,0
1916.56,0
1915.76,0
1914.96,0
1914.17,0
1913.37,0
1912.57,0
1911.77,0
1910.97,0
1910.17,0
1909.37,0
1908.58,0
1907.78,0
1906.98,0
1906.18,0
1905.38,0
1904.58,0
1903.78,0
1902.98,0
1902.18,0
1901.38,0
1900.58,0
1899.78,0
1898.98,0
1898.17,0
1897.37,0
1896.57,0
1895.77,0
1894.97,0
1894.17,0
1893.37,0
1892.57,0
1891.76,0
1890.96,0
1890.16,0
1889.36,0
1888.55,0
1887.75,0
1886.95,0
1886.15,0
1885.34,0
1884.54,0
1883.74,0
1882.93,0
1882.13,0
1881.33,0
1880.52,0
1879.72,0
1878.91,0
1878.11,0
1877.31,0
1876.5,0
1875.7,0
1874.89,0
1874.09,0
1873.28,0
1872.48,0
1871.67,0
1870.87,0
1870.06,0
1869.26,0
1868.45,0
1867.64,0
1866.84,0
1866.03,0
1865.23,0
1864.42,0
1863.61,0
1862.81,0
1862,0
1861.19,0
1860.38,0
1859.58,0
1858.77,0
1857.96,0
1857.15,0
1856.35,0
1855.54,0
1854.73,0
1853.92,0
1853.11,0
1852.31,0
1851.5,0
1850.69,0
1849.88,0
1849.07,0
1848.26,0
1847.45,0
1846.64,0
1845.83,0
1845.02,0
1844.21,0
1843.4,0
1842.59,0
1841.78,0
1840.97,0
1840.16,0
1839.35,0
1838.54,0
1837.73,0
1836.92,0
1836.11,0
1835.3,0
1834.48,0
1833.67,0
1832.86,0
1832.05,0
1831.24,0
1830.42,0
1829.61,0
1828.8,0
1827.99,0
1827.17,0
1826.36,0
1825.55,0
1824.73,0
1823.92,0
1823.11,0
1822.29,0.00900685932527122
1821.48,0.00950840811826277
1820.67,0.0100212684292788
1819.85,0.00961198727722381
1819.04,0.00997915005926766
1818.22,0.0102517068896451
1817.41,0.0104030192238903
1816.6,0.0103691163178594
1815.78,0.0100415415491882
1814.97,0.010278345301838
1814.15,0.00937927950813981
1813.34,0
1812.52,0
1811.71,0
1810.89,0
1810.07,0
1809.26,0
1808.44,0
1807.63,0
1806.81,0
1805.99,0
1805.18,0
1804.36,0
1803.54,0
1802.73,0
1801.91,0
1801.09,0
1800.28,0
1799.46,0
1798.64,0
1797.82,0
1797.01,0
1796.19,0
1795.37,0
1794.55,0
1793.73,0
1792.92,0
1792.1,0
1791.28,0
1790.46,0
1789.64,0
1788.82,0
1788,0
1787.18,0
1786.36,0
1785.54,0
1784.72,0
1783.9,0
1783.08,0
1782.26,0
1781.44,0
1780.62,0
1779.8,0
1778.98,0
1778.16,0
1777.34,0
1776.52,0
1775.69,0
1774.87,0
1774.05,0
1773.23,0
1772.41,0
1771.59,0
1770.76,0
1769.94,0
1769.12,0
1768.3,0
1767.47,0
1766.65,0
1765.83,0
1765,0
1764.18,0
1763.36,0
1762.53,0
1761.71,0
1760.88,0
1760.06,0
1759.24,0
1758.41,0
1757.59,0
1756.76,0
1755.94,0
1755.11,0
1754.29,0
1753.46,0
1752.64,0
1751.81,0
1750.99,0
1750.16,0
1749.34,0
1748.51,0
1747.68,0
1746.86,0
1746.03,0
1745.2,0
1744.38,0
1743.55,0
1742.72,0
1741.9,0
1741.07,0
1740.24,0
1739.41,0
1738.59,0
1737.76,0
1736.93,0
1736.1,0
1735.27,0
1734.45,0
1733.62,0
1732.79,0
1731.96,0
1731.13,0
1730.3,0
1729.47,0
1728.64,0
1727.81,0
1726.98,0
1726.15,0
1725.32,0
1724.49,0
1723.66,0
1722.83,0
1722,0
1721.17,0
1720.34,0
1719.51,0
1718.68,0
1717.85,0
1717.02,0
1716.19,0
1715.35,0
1714.52,0
1713.69,0
1712.86,0
1712.03,0
1711.19,0
1710.36,0
1709.53,0
1708.7,0
1707.86,0
1707.03,0
1706.2,0
1705.36,0
1704.53,0
1703.7,0
1702.86,0
1702.03,0
1701.19,0
1700.36,0
1699.53,0
1698.69,0
1697.86,0
1697.02,0
1696.19,0
1695.35,0
1694.52,0
1693.68,0
1692.85,0
1692.01,0
1691.17,0
1690.34,0
1689.5,0
1688.67,0
1687.83,0
1686.99,0
1686.16,0
1685.32,0
1684.48,0
1683.65,0
1682.81,0
1681.97,0
1681.13,0
1680.3,0
1679.46,0
1678.62,0
1677.78,0
1676.94,0
1676.11,0
1675.27,0
1674.43,0
1673.59,0
1672.75,0
1671.91,0
1671.07,0
1670.23,0
1669.39,0
1668.56,0
1667.72,0
1666.88,0.00913412908062613
1666.04,0.00978072906522764
1665.2,0.0103496263244527
1664.36,0.00975962393295604
1663.51,0.0104092146102024
1662.67,0.0109460353884804
1661.83,0.0113981184970321
1660.99,0.0118320211777159
1660.15,0.0121781949791793
1659.31,0.0125718170296872
1658.47,0.0128219100509798
1657.63,0.0131206062723865
1656.79,0.013433249104403
1655.94,0.0136515672088431
1655.1,0.0138288875136479
1654.26,0.0139174774514402
1653.42,0.0139561408094775
1652.58,0.0140100990725573
1651.73,0.013921854873909
1650.89,0.0138890726956656
1650.05,0.0138519076338243
1649.21,0.0138820351611328
1648.36,0.0139606873643568
1647.52,0.0140099478548212
1646.68,0.0140403986809753
1645.83,0.014006518424058
1644.99,0.0138771627057499
1644.14,0.0136953510433128
1643.3,0.0133602327228678
1642.46,0.0129735249810907
1641.61,0.0125676097213076
1640.77,0.0122558512818123
1639.92,0.0119755042839196
1639.08,0.0117589288218124
1638.23,0.0115372153079153
1637.39,0.0113430060340261
1636.54,0.0109987140267643
1635.7,0.0105710215071129
1634.85,0.0100531164506363
1634.01,0.00958244783682357
1633.16,0.0106050617185864
1632.32,0.0106754049607952
1631.47,0.0097210810257947
1630.62,0.010240113089567
1629.78,0.0107733410754342
1628.93,0.0112956704667687
1628.09,0.011588590762279
1627.24,0.0116871060327177
1626.39,0.0116619815770455
1625.55,0.0116131718838302
1624.7,0.0116512513345086
1623.85,0.011787684044272
1623,0.0120343172080202
1622.16,0.0122833584081275
1621.31,0.012502784611813
1620.46,0.0126608566219463
1619.61,0.0127479667622229
1618.76,0.0128939756035532
1617.92,0.0131167548480536
1617.07,0.0134123658042769
1616.22,0.0138214615963965
1615.37,0.0142993905990861
1614.52,0.0148918933546714
1613.67,0.0155029475556437
1612.82,0.0162417590383098
1611.97,0.0170291579366566
1611.13,0.0152078957745859
1610.28,0.0160038021898667
1609.43,0.0167796170613307
1608.58,0.0175251507313443
1607.73,0.0183241732564047
1606.88,0.0192938024897333
1606.03,0.0205035647545204
1605.18,0.021984126901191
1604.32,0.0239479054585121
1603.47,0.0263055972131675
1602.62,0.0288462374651145
1601.77,0.0316070561619639
1600.92,0.0345767923954225
1600.07,0.0377816097773389
1599.22,0.0412144233143187
1598.37,0.0450558326901115
1597.51,0.0493139591187966
1596.66,0.0540801241989557
1595.81,0.0593664162720285
1594.96,0.0652879991490994
1594.11,0.0717532677415732
1593.25,0.0789972668739048
1592.4,0.0872131915183328
1591.55,0.0966748098958785
1590.7,0.107692865715962
1589.84,0.120813964681051
1588.99,0.136518437277207
1588.14,0.155808690672095
1587.28,0.179881786485335
1586.43,0.210581677865376
1585.58,0.249800859904625
1584.72,0.299310703051034
1583.87,0.360435247613435
1583.01,0.433117692680916
1582.16,0.51577328844369
1581.3,0.605055718240056
1580.45,0.695582015485878
1579.59,0.78164226324834
1578.74,0.857467882533154
1577.88,0.918019608824165
1577.03,0.960059288343894
1576.17,0.981872804807546
1575.32,0.984083094669408
1574.46,0.968320019511091
1573.61,0.936598500277082
1572.75,0.891885358844915
1571.89,0.836595335329223
1571.04,0.773213938854025
1570.18,0.704176803820628
1569.33,0.631667101153931
1568.47,0.558543313723311
1567.61,0.487472505365667
1566.75,0.420901791321659
1565.9,0.360645595167444
1565.04,0.307442728413481
1564.18,0.261817544925458
1563.33,0.223249196772784
1562.47,0.190591141474135
1561.61,0.163000063266478
1560.75,0.139788820990404
1559.89,0.120640944523387
1559.04,0.105279432188402
1558.18,0.0933143820364232
1557.32,0.084504488944027
1556.46,0.0782034024941489
1555.6,0.073455662254043
1554.74,0.069647409442562
1553.88,0.0660666562642726
1553.02,0.0624603025531863
1552.16,0.058716564637329
1551.3,0.054751590848036
1550.44,0.0508377187625668
1549.58,0.0469937256632086
1548.72,0.0432335351180579
1547.86,0.0395426923360056
1547,0.0357751896695386
1546.14,0.0320048451282679
1545.28,0.0282327569691592
1544.42,0.0245255849654309
1543.56,0.0210671558400456
1542.7,0.0178210474473044
1541.84,0.0151542018185181
1540.98,0.0163348845709723
1540.11,0.0144081703765824
1539.25,0.012879484857004
1538.39,0.0116844659671122
1537.53,0.0105766361972986
1536.67,0.0110813254974944
1535.8,0.00994684313496077
1534.94,0.00899379573382537
1534.08,0
1533.22,0
1532.35,0
1531.49,0
1530.63,0
1529.76,0
1528.9,0
1528.04,0
1527.17,0
1526.31,0
1525.44,0
1524.58,0
1523.72,0
1522.85,0
1521.99,0
1521.12,0
1520.26,0
1519.39,0
1518.53,0
1517.66,0
1516.8,0
1515.93,0
1515.06,0
1514.2,0
1513.33,0
1512.47,0
1511.6,0
1510.73,0
1509.87,0
1509,0
1508.13,0
1507.26,0
1506.4,0
1505.53,0
1504.66,0
1503.79,0
1502.93,0
1502.06,0
1501.19,0
1500.32,0
1499.45,0
1498.58,0
1497.71,0
1496.85,0
1495.98,0
1495.11,0
1494.24,0
1493.37,0
1492.5,0
1491.63,0
1490.76,0
1489.89,0
1489.02,0
1488.15,0
1487.28,0
1486.4,0
1485.53,0
1484.66,0
1483.79,0
1482.92,0
1482.05,0
1481.18,0
1480.3,0
1479.43,0
1478.56,0
1477.69,0
1476.82,0.00909140094006851
1475.94,0.00909468903056116
1475.07,0
1474.2,0
1473.32,0
1472.45,0
1471.58,0
1470.7,0
1469.83,0
1468.96,0
1468.08,0
1467.21,0
1466.33,0
1465.46,0
1464.58,0
1463.71,0
1462.83,0
1461.96,0
1461.08,0
1460.21,0
1459.33,0
1458.46,0
1457.58,0
1456.71,0
1455.83,0
1454.95,0
1454.08,0
1453.2,0
1452.32,0
1451.45,0
1450.57,0
1449.69,0
1448.82,0
1447.94,0
1447.06,0
1446.18,0
1445.3,0
1444.43,0
1443.55,0
1442.67,0
1441.79,0
1440.91,0
1440.03,0
1439.15,0
1438.28,0
1437.4,0
1436.52,0
1435.64,0
1434.76,0
1433.88,0
1433,0
1432.12,0
1431.24,0
1430.36,0
1429.47,0
1428.59,0
1427.71,0
1426.83,0
1425.95,0
1425.07,0
1424.19,0
1423.31,0
1422.42,0
1421.54,0
1420.66,0
1419.78,0
1418.89,0
1418.01,0
1417.13,0
1416.25,0
1415.36,0
1414.48,0
1413.6,0
1412.71,0
1411.83,0
1410.94,0
1410.06,0
1409.18,0
1408.29,0
1407.41,0
1406.52,0
1405.64,0
1404.75,0
1403.87,0
1402.98,0
1402.1,0
1401.21,0
1400.33,0
1399.44,0
1398.55,0
1397.67,0
1396.78,0
1395.89,0
1395.01,0
1394.12,0
1393.23,0
1392.35,0
1391.46,0
1390.57,0
1389.68,0
1388.8,0
1387.91,0
1387.02,0
1386.13,0
1385.24,0
1384.36,0
1383.47,0
1382.58,0
1381.69,0
1380.8,0
1379.91,0
1379.02,0
1378.13,0
1377.24,0
1376.35,0
1375.46,0
1374.57,0
1373.68,0
1372.79,0
1371.9,0
1371.01,0
1370.12,0
1369.23,0
1368.33,0
1367.44,0
1366.55,0
1365.66,0
1364.77,0
1363.88,0
1362.98,0
1362.09,0
1361.2,0
1360.31,0
1359.41,0
1358.52,0
1357.63,0
1356.73,0
1355.84,0
1354.95,0
1354.05,0
1353.16,0
1352.26,0
1351.37,0
1350.47,0
1349.58,0
1348.69,0
1347.79,0
1346.9,0
1346,0
1345.1,0
1344.21,0
1343.31,0
1342.42,0
1341.52,0
1340.63,0
1339.73,0
1338.83,0
1337.94,0
1337.04,0
1336.14,0
1335.25,0
1334.35,0
1333.45,0
1332.55,0
1331.66,0
1330.76,0
1329.86,0
1328.96,0
1328.06,0
1327.16,0
1326.27,0
1325.37,0
1324.47,0
1323.57,0
1322.67,0
1321.77,0
1320.87,0
1319.97,0
1319.07,0
1318.17,0
1317.27,0
1316.37,0
1315.47,0
1314.57,0
1313.67,0
1312.77,0
1311.86,0
1310.96,0
1310.06,0
1309.16,0
1308.26,0
1307.36,0
1306.45,0
1305.55,0
1304.65,0
1303.75,0
1302.84,0
1301.94,0
1301.04,0
1300.13,0.00941621358083683
1299.23,0.0103918182123883
1298.33,0.0109219164852536
1297.42,0.0109948974463427
1296.52,0.0106475251054852
1295.62,0.00989582990387328
1294.71,0.00936880263833288
1293.81,0
1292.9,0
1292,0
1291.09,0
1290.19,0
1289.28,0
1288.38,0
1287.47,0
1286.57,0
1285.66,0
1284.75,0
1283.85,0
1282.94,0
1282.04,0
1281.13,0
1280.22,0
1279.32,0
1278.41,0
1277.5,0
1276.59,0
1275.69,0
1274.78,0
1273.87,0
1272.96,0
1272.05,0
1271.15,0
1270.24,0
1269.33,0.0104705137117234
1268.42,0.0128348467098897
1267.51,0.0117412706705361
1266.6,0.0135667694992723
1265.69,0.015225827927251
1264.78,0.0165273389992399
1263.87,0.0176239101588829
1262.96,0.0183714473574642
1262.05,0.0189335450094456
1261.14,0.0191556808399923
1260.23,0.0191190981135719
1259.32,0.0188199347661364
1258.41,0.0183483677924304
1257.5,0.0175018535340744
1256.59,0.0165096040872132
1255.68,0.0151683715277309
1254.77,0.0137226068817843
1253.86,0.0120688543170915
1252.95,0.0103701328731994
1252.03,0.0120266487511009
1251.12,0.0101189661916936
1250.21,0.00896855528884713
1249.3,0
1248.39,0
1247.47,0
1246.56,0
1245.65,0
1244.73,0
1243.82,0
1242.91,0
1241.99,0
1241.08,0
1240.17,0
1239.25,0
1238.34,0
1237.42,0
1236.51,0
1235.6,0
1234.68,0
1233.77,0
1232.85,0
1231.94,0
1231.02,0
1230.1,0
1229.19,0
1228.27,0
1227.36,0
1226.44,0
1225.52,0
1224.61,0
1223.69,0
1222.77,0
1221.86,0
1220.94,0
1220.02,0
1219.11,0
1218.19,0
1217.27,0
1216.35,0
1215.43,0
1214.52,0
1213.6,0
1212.68,0
1211.76,0
1210.84,0
1209.92,0
1209,0
1208.08,0
1207.16,0
1206.24,0
1205.32,0
1204.4,0
1203.48,0
1202.56,0
1201.64,0
1200.72,0
1199.8,0
1198.88,0
1197.96,0
1197.04,0
1196.11,0
1195.19,0
1194.27,0.00918223423446442
1193.35,0.0130490098839802
1192.43,0.0143521672982765
1191.5,0.0215756228881298
1190.58,0.0310962547073325
1189.66,0.0432419070450921
1188.74,0.0581789674742555
1187.81,0.0756625534902496
1186.89,0.0950233935772436
1185.97,0.115249719337697
1185.04,0.134988791397505
1184.12,0.152593625577226
1183.2,0.166372892896366
1182.27,0.175058309025564
1181.35,0.178002660481015
1180.42,0.175089229723396
1179.5,0.166658497805782
1178.57,0.153681736396385
1177.65,0.137210042757523
1176.72,0.118633787630197
1175.8,0.0991293681835667
1174.87,0.0798570691532729
1173.95,0.0617663169031326
1173.02,0.0456909940270462
1172.1,0.0323358686730724
1171.17,0.0219397393473575
1170.24,0.0143697806657746
1169.32,0.0135358209696866
1168.39,0.0102947962620716
1167.46,0.00939810312783235
1166.54,0
1165.61,0
1164.68,0
1163.76,0
1162.83,0
1161.9,0
1160.97,0
1160.05,0
1159.12,0
1158.19,0
1157.26,0
1156.33,0
1155.4,0
1154.47,0.00940983924629297
1153.55,0.00942633325513338
1152.62,0.0104636062572964
1151.69,0.0113566672487564
1150.76,0.012289353650646
1149.83,0.0130462121081545
1148.9,0.0139345554654667
1147.97,0.0104579544056324
1147.04,0.0117437791924662
1146.11,0.0133673214047075
1145.18,0.01533723222411
1144.25,0.0174922232966255
1143.31,0.0198384455671857
1142.38,0.0220980020389623
1141.45,0.0244044023852379
1140.52,0.0267510951472211
1139.59,0.0291830549340044
1138.66,0.0319052140083315
1137.73,0.0348194351134622
1136.79,0.0379131034975093
1135.86,0.0411492661142187
1134.93,0.0444312494393005
1134,0.0477384334212422
1133.06,0.0508260872748205
1132.13,0.0536429161757105
1131.2,0.0564586716696632
1130.26,0.0591610463397564
1129.33,0.0621387549999022
1128.4,0.0654745929137405
1127.46,0.0693234259530162
1126.53,0.0737622978964039
1125.6,0.0786773500447365
1124.66,0.0840691714981588
1123.73,0.0899210631643241
1122.79,0.0960421109412801
1121.86,0.10260208846062
1120.92,0.109208898827911
1119.99,0.115697817690738
1119.05,0.12189280610527
1118.12,0.127451375880301
1117.18,0.132350321926293
1116.25,0.136515563806424
1115.31,0.140330621046401
1114.37,0.145877104096934
1113.44,0.151699615499902
1112.5,0.158162858760674
1111.56,0.165390016512847
1110.63,0.173336914122774
1109.69,0.182078860632886
1108.75,0.191196454229177
1107.82,0.200964764424018
1106.88,0.21122125832888
1105.94,0.222260370719075
1105,0.234143354942947
1104.07,0.246966496517135
1103.13,0.261098797195567
1102.19,0.27666340985474
1101.25,0.293279357580257
1100.31,0.310626004254833
1099.37,0.327779689326117
1098.44,0.344066739820601
1097.5,0.35841716669448
1096.56,0.370067129638468
1095.62,0.378740439731748
1094.68,0.384879919072819
1093.74,0.38971589171715
1092.8,0.395191298268206
1091.86,0.403971958772474
1090.92,0.419963050266578
1089.98,0.434379091557917
1089.04,0.490263008245961
1088.1,0.596245342888063
1087.16,0.735607452644286
1086.21,0.875753125058001
1085.27,0.976632493043275
1084.33,1
1083.39,0.918535747951569
1082.45,0.72362773235604
1081.51,0.475230185685058
1080.56,0.220095486334026
1079.62,0
1078.68,0
1077.74,0
1076.79,0
1075.85,0
1074.91,0
1073.97,0.138107526548688
1073.02,0.376872883666143
1072.08,0.611874428892382
1071.13,0.797337029043556
1070.19,0.876260580186179
1069.25,0.855036119821234
1068.3,0.757819002099745
1067.36,0.619334026043017
1066.41,0.476816896356632
1065.47,0.36109407254683
1064.52,0.289277272848782
1063.58,0.254869700610608
1062.63,0.219316761135106
1061.69,0.192016187494662
1060.74,0.170469411671304
1059.8,0.153047720917841
1058.85,0.13821101696931
1057.9,0.125053088542081
1056.96,0.113190666290407
1056.01,0.102209312560426
1055.07,0.0923261041398839
1054.12,0.083516484995907
1053.17,0.0755194469153165
1052.22,0.0684869825795514
1051.28,0.0623855044688223
1050.33,0.0571341401758377
1049.38,0.0525073679968151
1048.43,0.0484423507616428
1047.49,0.0449320544164954
1046.54,0.0417843938099899
1045.59,0.038811605764789
1044.64,0.0359880361839213
1043.69,0.0333129343402603
1042.74,0.03081280368778
1041.79,0.0285610646954776
1040.85,0.0265783021510534
1039.9,0.0247326638319396
1038.95,0.0230277122058405
1038,0.0214494809568746
1037.05,0.0198086781887883
1036.1,0.0181018021245796
1035.15,0.0165128934692989
1034.2,0.0151287466856899
1033.25,0.0140145029609268
1032.3,0.0131993767149721
1031.34,0.0125921149087542
1030.39,0.0120221987894403
1029.44,0.0114581787375288
1028.49,0.0108790556220493
1027.54,0.010294205681674
1026.59,0.00975177202837099
1025.64,0.0142971627938014
1024.68,0.014034080883619
1023.73,0.013874393975161
1022.78,0.0137040102841386
1021.83,0.013754758853514
1020.87,0.0143173256973469
1019.92,0.0108348156356851
1018.97,0.0134957595766894
1018.01,0.0174754607678729
1017.06,0.0225432247712272
1016.11,0.028198024839805
1015.15,0.0334195669937888
1014.2,0.0373812644011136
1013.25,0.0393237819405652
1012.29,0.0389255052365703
1011.34,0.036310611172016
1010.38,0.0317843836082562
1009.43,0.0263198176208996
1008.47,0.0207413226543105
1007.52,0.015738021350018
1006.56,0.0118054502146461
1005.61,0.0139077023502181
1004.65,0.0123120612817975
1003.7,0.0116155815055698
1002.74,0.0112082013825717
1001.78,0.0110519962145341
1000.83,0.0106156681976071
999.871,0.0100686090112324
998.914,0.00924449402341993
997.957,0.00939339736347339
997,0
996.043,0
995.086,0
994.128,0
993.17,0
992.212,0
991.254,0
990.296,0
989.338,0
988.379,0
987.421,0
986.462,0
985.503,0
984.543,0
983.584,0
982.624,0
981.665,0
980.705,0
979.744,0
978.784,0
977.824,0
976.863,0
975.902,0
974.941,0
973.98,0
973.019,0
972.057,0
971.096,0
970.134,0
969.172,0
968.21,0
967.247,0
966.285,0
965.322,0
964.359,0
963.396,0.00904245730568004
962.433,0.00921977311721671
961.47,0.00938104636299587
960.506,0.00939896158515977
959.542,0.00931390569337021
958.578,0.00928166547588113
957.614,0.00908179206479742
956.65,0.00894958645917725
955.686,0.00896203520372346
954.721,0.00893717321504538
953.756,0.00904649230710111
952.791,0.00900250062242658
951.826,0.00896313706679606
950.861,0.00894392630413453
949.895,0.00890359648634018
948.93,0.00905386988465452
947.964,0.00909657710130766
946.998,0.00917966510569755
946.032,0.00922433160637835
945.065,0.0089384934402788
944.099,0
943.132,0
942.165,0
941.198,0
940.231,0
939.264,0
938.296,0
937.328,0
936.361,0
935.392,0
934.424,0
933.456,0
932.487,0
931.518,0
930.549,0
929.58,0
928.611,0
927.641,0
926.672,0
925.702,0
924.732,0
923.762,0
922.791,0
921.821,0
920.85,0
919.879,0
918.908,0
917.937,0
916.966,0
915.994,0
915.022,0
914.05,0
913.078,0
912.106,0
911.134,0
910.161,0
909.188,0
908.215,0
907.242,0
906.269,0
905.295,0
904.321,0
903.348,0
902.373,0
901.399,0
900.425,0
899.45,0
898.476,0
897.501,0
896.526,0
895.55,0
894.575,0
893.599,0
892.623,0
891.647,0
890.671,0
889.695,0
888.718,0
887.742,0
886.765,0
885.788,0
884.811,0
883.833,0
882.856,0
881.878,0
880.9,0
879.922,0
878.944,0
877.965,0
876.987,0
876.008,0
875.029,0
874.05,0
873.07,0
872.091,0
871.111,0
870.131,0
869.151,0
868.171,0
867.191,0
866.21,0
865.229,0
864.248,0
863.267,0
862.286,0
861.304,0
860.323,0
859.341,0
858.359,0
857.377,0
856.394,0
855.412,0
854.429,0
853.446,0
852.463,0
851.48,0
850.496,0
849.513,0
848.529,0
847.545,0
846.561,0
845.577,0
844.592,0
843.607,0
842.623,0
841.638,0
840.652,0
839.667,0
838.681,0
837.696,0
836.71,0
835.724,0
834.737,0
833.751,0
832.764,0
831.777,0
830.79,0.0103012123899678
829.803,0.0110555427679941
828.816,0.0145852094576762
827.828,0.0151783849079214
826.841,0.0155869099920376
825.853,0.0157761228410429
824.865,0.0156946810291846
823.876,0.0154817861319922
822.888,0.0152519762647154
821.899,0.0149719904246978
820.911,0.0146606765846861
819.922,0.00994705577314402
818.932,0
817.943,0
816.954,0
815.964,0
814.974,0
813.984,0
812.994,0
812.003,0
811.013,0
810.022,0
809.031,0
808.04,0
807.048,0
806.057,0
805.065,0
804.073,0
803.081,0
802.089,0
801.097,0
