3801.25	0.304955
3800.75	0.304987
3800.24	0.304966
3799.74	0.304928
3799.23	0.304895
3798.73	0.304825
3798.22	0.304742
3797.72	0.304698
3797.21	0.304677
3796.71	0.304656
3796.2	0.304597
3795.69	0.304518
3795.19	0.30448
3794.68	0.304441
3794.18	0.304435
3793.67	0.304401
3793.16	0.304384
3792.66	0.304379
3792.15	0.3043
3791.65	0.304228
3791.14	0.3042
3790.63	0.304193
3790.13	0.304163
3789.62	0.304107
3789.11	0.304116
3788.61	0.304084
3788.1	0.304021
3787.59	0.304004
3787.09	0.303968
3786.58	0.303956
3786.07	0.30391
3785.56	0.303876
3785.06	0.303855
3784.55	0.303761
3784.04	0.303714
3783.53	0.303669
3783.03	0.303628
3782.52	0.303643
3782.01	0.303583
3781.5	0.303536
3780.99	0.30348
3780.49	0.303374
3779.98	0.303317
3779.47	0.303279
3778.96	0.303262
3778.45	0.303269
3777.95	0.303244
3777.44	0.303192
3776.93	0.303169
3776.42	0.303101
3775.91	0.30303
3775.4	0.303026
3774.89	0.303012
3774.39	0.302949
3773.88	0.302961
3773.37	0.302902
3772.86	0.302918
3772.35	0.302853
3771.84	0.302814
3771.33	0.302821
3770.82	0.30275
3770.31	0.302687
3769.8	0.302652
3769.29	0.30261
3768.78	0.302601
3768.27	0.302531
3767.76	0.302525
3767.25	0.302504
3766.74	0.302443
3766.23	0.302428
3765.72	0.302347
3765.21	0.302302
3764.7	0.302268
3764.19	0.302226
3763.68	0.302179
3763.17	0.302168
3762.66	0.302141
3762.15	0.302101
3761.64	0.302032
3761.13	0.302022
3760.62	0.302021
3760.11	0.302011
3759.6	0.301945
3759.08	0.301893
3758.57	0.301846
3758.06	0.301768
3757.55	0.301694
3757.04	0.301675
3756.53	0.301663
3756.02	0.301663
3755.5	0.301595
3754.99	0.30152
3754.48	0.301458
3753.97	0.301412
3753.46	0.301387
3752.95	0.301383
3752.43	0.301354
3751.92	0.301325
3751.41	0.301284
3750.9	0.301232
3750.38	0.301184
3749.87	0.301152
3749.36	0.301133
3748.85	0.301157
3748.33	0.301097
3747.82	0.301053
3747.31	0.301021
3746.8	0.300974
3746.28	0.300917
3745.77	0.300893
3745.26	0.300848
3744.74	0.30086
3744.23	0.30077
3743.72	0.300728
3743.2	0.300693
3742.69	0.300646
3742.18	0.300588
3741.66	0.300571
3741.15	0.300543
3740.64	0.300505
3740.12	0.300418
3739.61	0.300403
3739.09	0.300347
3738.58	0.300287
3738.07	0.300184
3737.55	0.30015
3737.04	0.300146
3736.52	0.300127
3736.01	0.300089
3735.49	0.300066
3734.98	0.29999
3734.46	0.299955
3733.95	0.299916
3733.43	0.299915
3732.92	0.299921
3732.4	0.299969
3731.89	0.29995
3731.37	0.299932
3730.86	0.299819
3730.34	0.299763
3729.83	0.299705
3729.31	0.299623
3728.8	0.299574
3728.28	0.299561
3727.77	0.299511
3727.25	0.299488
3726.74	0.299419
3726.22	0.299426
3725.7	0.299399
3725.19	0.299347
3724.67	0.29929
3724.16	0.299239
3723.64	0.299209
3723.12	0.299174
3722.61	0.299138
3722.09	0.299183
3721.57	0.299148
3721.06	0.299101
3720.54	0.299019
3720.02	0.298945
3719.51	0.298858
3718.99	0.298795
3718.47	0.29876
3717.96	0.298783
3717.44	0.298723
3716.92	0.298709
3716.4	0.298709
3715.89	0.298667
3715.37	0.298608
3714.85	0.298612
3714.33	0.298564
3713.82	0.298494
3713.3	0.298375
3712.78	0.298288
3712.26	0.298295
3711.75	0.298262
3711.23	0.298248
3710.71	0.298234
3710.19	0.298192
3709.67	0.298157
3709.15	0.298108
3708.64	0.298077
3708.12	0.298071
3707.6	0.298051
3707.08	0.298028
3706.56	0.297948
3706.04	0.297911
3705.52	0.29787
3705	0.297834
3704.49	0.297832
3703.97	0.297769
3703.45	0.297765
3702.93	0.297732
3702.41	0.297676
3701.89	0.297629
3701.37	0.29755
3700.85	0.297489
3700.33	0.297481
3699.81	0.297441
3699.29	0.297421
3698.77	0.29735
3698.25	0.29731
3697.73	0.297277
3697.21	0.297235
3696.69	0.297203
3696.17	0.297179
3695.65	0.29716
3695.13	0.297084
3694.61	0.297005
3694.09	0.296962
3693.57	0.296974
3693.05	0.296945
3692.53	0.296911
3692.01	0.296874
3691.49	0.296871
3690.96	0.296829
3690.44	0.296766
3689.92	0.29674
3689.4	0.296714
3688.88	0.296676
3688.36	0.296625
3687.84	0.296607
3687.32	0.296575
3686.79	0.296545
3686.27	0.29648
3685.75	0.296431
3685.23	0.296396
3684.71	0.296358
3684.19	0.296314
3683.66	0.296298
3683.14	0.296249
3682.62	0.296247
3682.1	0.296182
3681.57	0.296148
3681.05	0.296118
3680.53	0.296057
3680.01	0.29603
3679.48	0.295985
3678.96	0.295913
3678.44	0.29586
3677.92	0.295759
3677.39	0.295771
3676.87	0.295735
3676.35	0.29573
3675.82	0.295751
3675.3	0.295719
3674.78	0.295648
3674.25	0.295623
3673.73	0.295533
3673.21	0.295518
3672.68	0.295414
3672.16	0.295391
3671.64	0.295322
3671.11	0.295253
3670.59	0.295235
3670.06	0.295279
3669.54	0.295252
3669.02	0.295224
3668.49	0.295153
3667.97	0.295103
3667.44	0.295038
3666.92	0.295014
3666.39	0.29497
3665.87	0.294958
3665.34	0.294925
3664.82	0.29485
3664.29	0.294789
3663.77	0.294724
3663.24	0.294722
3662.72	0.294691
3662.19	0.294638
3661.67	0.294646
3661.14	0.294659
3660.62	0.294623
3660.09	0.294608
3659.57	0.294524
3659.04	0.294505
3658.52	0.294467
3657.99	0.294407
3657.46	0.294399
3656.94	0.294372
3656.41	0.294323
3655.89	0.294247
3655.36	0.294158
3654.83	0.294136
3654.31	0.294096
3653.78	0.294046
3653.25	0.294019
3652.73	0.293946
3652.2	0.293876
3651.67	0.293822
3651.15	0.293766
3650.62	0.293722
3650.09	0.293716
3649.57	0.293695
3649.04	0.293658
3648.51	0.293609
3647.99	0.293574
3647.46	0.29358
3646.93	0.293511
3646.4	0.293502
3645.88	0.293457
3645.35	0.293383
3644.82	0.293322
3644.29	0.29325
3643.76	0.293184
3643.24	0.293189
3642.71	0.293173
3642.18	0.29321
3641.65	0.2932
3641.12	0.293192
3640.6	0.293175
3640.07	0.293115
3639.54	0.293033
3639.01	0.292988
3638.48	0.292925
3637.95	0.292871
3637.42	0.292791
3636.9	0.292726
3636.37	0.292682
3635.84	0.292635
3635.31	0.292638
3634.78	0.292611
3634.25	0.292581
3633.72	0.292553
3633.19	0.292505
3632.66	0.292473
3632.13	0.292444
3631.6	0.292435
3631.07	0.292436
3630.54	0.292352
3630.01	0.292319
3629.48	0.292241
3628.95	0.292181
3628.42	0.292153
3627.89	0.292109
3627.36	0.292031
3626.83	0.291984
3626.3	0.291937
3625.77	0.291905
3625.24	0.291862
3624.71	0.291887
3624.18	0.291894
3623.65	0.291856
3623.12	0.291779
3622.59	0.291773
3622.06	0.291697
3621.52	0.291597
3620.99	0.291533
3620.46	0.291511
3619.93	0.291491
3619.4	0.291457
3618.87	0.291443
3618.34	0.291443
3617.8	0.291356
3617.27	0.291337
3616.74	0.291283
3616.21	0.291246
3615.68	0.291226
3615.15	0.291152
3614.61	0.291104
3614.08	0.291079
3613.55	0.291023
3613.02	0.291038
3612.48	0.291011
3611.95	0.290981
3611.42	0.290937
3610.89	0.290888
3610.35	0.290835
3609.82	0.290815
3609.29	0.290769
3608.75	0.2907
3608.22	0.290656
3607.69	0.290597
3607.16	0.290532
3606.62	0.290466
3606.09	0.290398
3605.56	0.29036
3605.02	0.290344
3604.49	0.290337
3603.95	0.290312
3603.42	0.290312
3602.89	0.290283
3602.35	0.290235
3601.82	0.290223
3601.29	0.290174
3600.75	0.290163
3600.22	0.290152
3599.68	0.290058
3599.15	0.29001
3598.61	0.289936
3598.08	0.28987
3597.54	0.289821
3597.01	0.28979
3596.47	0.28975
3595.94	0.289711
3595.41	0.289677
3594.87	0.28967
3594.34	0.289649
3593.8	0.28957
3593.26	0.289527
3592.73	0.289519
3592.19	0.289443
3591.66	0.28937
3591.12	0.289347
3590.59	0.28931
3590.05	0.289231
3589.52	0.289151
3588.98	0.289139
3588.44	0.289163
3587.91	0.289129
3587.37	0.289069
3586.84	0.289061
3586.3	0.289052
3585.76	0.288981
3585.23	0.288973
3584.69	0.289006
3584.15	0.289001
3583.62	0.288946
3583.08	0.288856
3582.54	0.288797
3582.01	0.288748
3581.47	0.288644
3580.93	0.288583
3580.4	0.288583
3579.86	0.288569
3579.32	0.28855
3578.78	0.288471
3578.25	0.288444
3577.71	0.288411
3577.17	0.288353
3576.63	0.288267
3576.1	0.288274
3575.56	0.288245
3575.02	0.288245
3574.48	0.288176
3573.94	0.288182
3573.41	0.288141
3572.87	0.288104
3572.33	0.288037
3571.79	0.287973
3571.25	0.287943
3570.71	0.287915
3570.17	0.287879
3569.64	0.287884
3569.1	0.287858
3568.56	0.287831
3568.02	0.28781
3567.48	0.287749
3566.94	0.287696
3566.4	0.287623
3565.86	0.287635
3565.32	0.287568
3564.78	0.287532
3564.24	0.287439
3563.71	0.287362
3563.17	0.287272
3562.63	0.287189
3562.09	0.28717
3561.55	0.287151
3561.01	0.287096
3560.47	0.287109
3559.93	0.287075
3559.39	0.287077
3558.85	0.287056
3558.3	0.287064
3557.76	0.287043
3557.22	0.286964
3556.68	0.286936
3556.14	0.286864
3555.6	0.28678
3555.06	0.286718
3554.52	0.286645
3553.98	0.286627
3553.44	0.286594
3552.9	0.286563
3552.36	0.286561
3551.81	0.28649
3551.27	0.286453
3550.73	0.286419
3550.19	0.286391
3549.65	0.286349
3549.11	0.286341
3548.56	0.286266
3548.02	0.286226
3547.48	0.286179
3546.94	0.286152
3546.4	0.286125
3545.85	0.286114
3545.31	0.286068
3544.77	0.286075
3544.23	0.286002
3543.68	0.286028
3543.14	0.285969
3542.6	0.285891
3542.06	0.285825
3541.51	0.285796
3540.97	0.285727
3540.43	0.285684
3539.88	0.285631
3539.34	0.285634
3538.8	0.285592
3538.26	0.285574
3537.71	0.285551
3537.17	0.285532
3536.62	0.285453
3536.08	0.285436
3535.54	0.285362
3534.99	0.285287
3534.45	0.285302
3533.91	0.285268
3533.36	0.285251
3532.82	0.285195
3532.27	0.285146
3531.73	0.285155
3531.18	0.285137
3530.64	0.285036
3530.1	0.285001
3529.55	0.284907
3529.01	0.284863
3528.46	0.28482
3527.92	0.2848
3527.37	0.284787
3526.83	0.2848
3526.28	0.284698
3525.74	0.28466
3525.19	0.284611
3524.65	0.28452
3524.1	0.284507
3523.56	0.284471
3523.01	0.284435
3522.46	0.284356
3521.92	0.284314
3521.37	0.284265
3520.83	0.284243
3520.28	0.284156
3519.73	0.284136
3519.19	0.284095
3518.64	0.284022
3518.1	0.283963
3517.55	0.283945
3517	0.283861
3516.46	0.283853
3515.91	0.283838
3515.36	0.283849
3514.82	0.28377
3514.27	0.283734
3513.72	0.283735
3513.18	0.283674
3512.63	0.283592
3512.08	0.283513
3511.53	0.283538
3510.99	0.283527
3510.44	0.283469
3509.89	0.283473
3509.34	0.28342
3508.8	0.283345
3508.25	0.283286
3507.7	0.283174
3507.15	0.283142
3506.61	0.283151
3506.06	0.283171
3505.51	0.283157
3504.96	0.283156
3504.41	0.283149
3503.86	0.283066
3503.32	0.282983
3502.77	0.282912
3502.22	0.28285
3501.67	0.282787
3501.12	0.282768
3500.57	0.282775
3500.02	0.282751
3499.47	0.28273
3498.93	0.282716
3498.38	0.282685
3497.83	0.282594
3497.28	0.282511
3496.73	0.282498
3496.18	0.282481
3495.63	0.282448
3495.08	0.282464
3494.53	0.282393
3493.98	0.282316
3493.43	0.28224
3492.88	0.28211
3492.33	0.282042
3491.78	0.282001
3491.23	0.281969
3490.68	0.281981
3490.13	0.281984
3489.58	0.282008
3489.03	0.282019
3488.48	0.281947
3487.93	0.281847
3487.37	0.281786
3486.82	0.281711
3486.27	0.28166
3485.72	0.281615
3485.17	0.281605
3484.62	0.281539
3484.07	0.281469
3483.52	0.281408
3482.97	0.281349
3482.41	0.281252
3481.86	0.281211
3481.31	0.281177
3480.76	0.281185
3480.21	0.281186
3479.65	0.281166
3479.1	0.281177
3478.55	0.281177
3478	0.281128
3477.45	0.281088
3476.89	0.281056
3476.34	0.28102
3475.79	0.280892
3475.24	0.280762
3474.68	0.280708
3474.13	0.280719
3473.58	0.280688
3473.02	0.280657
3472.47	0.280682
3471.92	0.280666
3471.37	0.280567
3470.81	0.280565
3470.26	0.280549
3469.71	0.280529
3469.15	0.280464
3468.6	0.280403
3468.04	0.280375
3467.49	0.280302
3466.94	0.280214
3466.38	0.280167
3465.83	0.28014
3465.28	0.280128
3464.72	0.280131
3464.17	0.280109
3463.61	0.280126
3463.06	0.280112
3462.5	0.280022
3461.95	0.279922
3461.39	0.279868
3460.84	0.279841
3460.28	0.279819
3459.73	0.279711
3459.17	0.279709
3458.62	0.279702
3458.06	0.279648
3457.51	0.279585
3456.95	0.279552
3456.4	0.279553
3455.84	0.279504
3455.29	0.279425
3454.73	0.279422
3454.18	0.279396
3453.62	0.279366
3453.06	0.279314
3452.51	0.279259
3451.95	0.279228
3451.4	0.279198
3450.84	0.279156
3450.28	0.279112
3449.73	0.279075
3449.17	0.279037
3448.61	0.278995
3448.06	0.278913
3447.5	0.27887
3446.94	0.278879
3446.39	0.278822
3445.83	0.278776
3445.27	0.278722
3444.72	0.278689
3444.16	0.278622
3443.6	0.278527
3443.04	0.278454
3442.49	0.278436
3441.93	0.278384
3441.37	0.27834
3440.81	0.278269
3440.26	0.278253
3439.7	0.278208
3439.14	0.278196
3438.58	0.27818
3438.02	0.278153
3437.47	0.278169
3436.91	0.27815
3436.35	0.278088
3435.79	0.27801
3435.23	0.277971
3434.67	0.277946
3434.11	0.277884
3433.56	0.277826
3433	0.277822
3432.44	0.277782
3431.88	0.277707
3431.32	0.277632
3430.76	0.277565
3430.2	0.277531
3429.64	0.277535
3429.08	0.277522
3428.52	0.277549
3427.96	0.277522
3427.4	0.277507
3426.84	0.277464
3426.28	0.277387
3425.72	0.277365
3425.16	0.277352
3424.6	0.277268
3424.04	0.277204
3423.48	0.277104
3422.92	0.277087
3422.36	0.277022
3421.8	0.277022
3421.24	0.27702
3420.68	0.277033
3420.12	0.276987
3419.56	0.27692
3419	0.276893
3418.44	0.276876
3417.88	0.276819
3417.32	0.2768
3416.75	0.276735
3416.19	0.276702
3415.63	0.276632
3415.07	0.276562
3414.51	0.276556
3413.95	0.276502
3413.38	0.276469
3412.82	0.276425
3412.26	0.276379
3411.7	0.276357
3411.14	0.276325
3410.57	0.276259
3410.01	0.27618
3409.45	0.276081
3408.89	0.276027
3408.32	0.275983
3407.76	0.275962
3407.2	0.275946
3406.64	0.275941
3406.07	0.275932
3405.51	0.27589
3404.95	0.275864
3404.38	0.275799
3403.82	0.275701
3403.26	0.275595
3402.69	0.27551
3402.13	0.275474
3401.57	0.275499
3401	0.275548
3400.44	0.275533
3399.88	0.275492
3399.31	0.275483
3398.75	0.275439
3398.18	0.2754
3397.62	0.275344
3397.06	0.275282
3396.49	0.275276
3395.93	0.275185
3395.36	0.2752
3394.8	0.275277
3394.23	0.275254
3393.67	0.275204
3393.1	0.275135
3392.54	0.275045
3391.97	0.274951
3391.41	0.274864
3390.84	0.274792
3390.28	0.274723
3389.71	0.274638
3389.15	0.274566
3388.58	0.274539
3388.02	0.274525
3387.45	0.2745
3386.89	0.274472
3386.32	0.274378
3385.75	0.274346
3385.19	0.274366
3384.62	0.274381
3384.06	0.274438
3383.49	0.274426
3382.92	0.274371
3382.36	0.274332
3381.79	0.274215
3381.22	0.274148
3380.66	0.274099
3380.09	0.274011
3379.52	0.27399
3378.96	0.273955
3378.39	0.273911
3377.82	0.27396
3377.26	0.273916
3376.69	0.273923
3376.12	0.273907
3375.55	0.273804
3374.99	0.273757
3374.42	0.273714
3373.85	0.273631
3373.28	0.27362
3372.72	0.27358
3372.15	0.273564
3371.58	0.273538
3371.01	0.273441
3370.44	0.273408
3369.88	0.273327
3369.31	0.273263
3368.74	0.273259
3368.17	0.273147
3367.6	0.273119
3367.03	0.273056
3366.46	0.273023
3365.9	0.273071
3365.33	0.273058
3364.76	0.273098
3364.19	0.273109
3363.62	0.273046
3363.05	0.273048
3362.48	0.272933
3361.91	0.272828
3361.34	0.272763
3360.77	0.272714
3360.2	0.2727
3359.63	0.27261
3359.06	0.272561
3358.49	0.272525
3357.92	0.272484
3357.35	0.27241
3356.78	0.27242
3356.21	0.272394
3355.64	0.272354
3355.07	0.272273
3354.5	0.272258
3353.93	0.272219
3353.36	0.272175
3352.79	0.272116
3352.22	0.272068
3351.65	0.272017
3351.08	0.271986
3350.5	0.271965
3349.93	0.271957
3349.36	0.271911
3348.79	0.271855
3348.22	0.271841
3347.65	0.271769
3347.08	0.27176
3346.5	0.271702
3345.93	0.271679
3345.36	0.271652
3344.79	0.271685
3344.22	0.271674
3343.64	0.271597
3343.07	0.271485
3342.5	0.27139
3341.93	0.271297
3341.35	0.271268
3340.78	0.271221
3340.21	0.271237
3339.64	0.271209
3339.06	0.271132
3338.49	0.271069
3337.92	0.271054
3337.34	0.271067
3336.77	0.271095
3336.2	0.271072
3335.62	0.271093
3335.05	0.271057
3334.48	0.270936
3333.9	0.270806
3333.33	0.270719
3332.76	0.270655
3332.18	0.270648
3331.61	0.270637
3331.03	0.270663
3330.46	0.270563
3329.89	0.270478
3329.31	0.270373
3328.74	0.27029
3328.16	0.270268
3327.59	0.270273
3327.01	0.270306
3326.44	0.270325
3325.86	0.270278
3325.29	0.270249
3324.71	0.270144
3324.14	0.270079
3323.56	0.270054
3322.99	0.270001
3322.41	0.269975
3321.84	0.269892
3321.26	0.269827
3320.69	0.2697
3320.11	0.269679
3319.54	0.26965
3318.96	0.269726
3318.38	0.269783
3317.81	0.269781
3317.23	0.269707
3316.65	0.269671
3316.08	0.269603
3315.5	0.269629
3314.93	0.269526
3314.35	0.269495
3313.77	0.269449
3313.2	0.269369
3312.62	0.269263
3312.04	0.269224
3311.47	0.269182
3310.89	0.269177
3310.31	0.269141
3309.73	0.269079
3309.16	0.269057
3308.58	0.269042
3308	0.269016
3307.42	0.26901
3306.85	0.268966
3306.27	0.268922
3305.69	0.268915
3305.11	0.268887
3304.53	0.26884
3303.96	0.268813
3303.38	0.268744
3302.8	0.268641
3302.22	0.268556
3301.64	0.268464
3301.06	0.268433
3300.49	0.268467
3299.91	0.268458
3299.33	0.268462
3298.75	0.2684
3298.17	0.268312
3297.59	0.268245
3297.01	0.268189
3296.43	0.268128
3295.85	0.268085
3295.27	0.268031
3294.7	0.267959
3294.12	0.26795
3293.54	0.267912
3292.96	0.267858
3292.38	0.2678
3291.8	0.267759
3291.22	0.267716
3290.64	0.267665
3290.06	0.26758
3289.48	0.26758
3288.9	0.26753
3288.31	0.267435
3287.73	0.267392
3287.15	0.267452
3286.57	0.267455
3285.99	0.267521
3285.41	0.267474
3284.83	0.267427
3284.25	0.267345
3283.67	0.267269
3283.09	0.267213
3282.51	0.267187
3281.92	0.267194
3281.34	0.267292
3280.76	0.267243
3280.18	0.267147
3279.6	0.267083
3279.02	0.266985
3278.43	0.266857
3277.85	0.266831
3277.27	0.266848
3276.69	0.266831
3276.11	0.266737
3275.52	0.266657
3274.94	0.266596
3274.36	0.266465
3273.78	0.266459
3273.19	0.266505
3272.61	0.266403
3272.03	0.266394
3271.44	0.266283
3270.86	0.266226
3270.28	0.266185
3269.69	0.266089
3269.11	0.266116
3268.53	0.266131
3267.94	0.266086
3267.36	0.26617
3266.78	0.266117
3266.19	0.266038
3265.61	0.265992
3265.03	0.265966
3264.44	0.265926
3263.86	0.265892
3263.27	0.265871
3262.69	0.265848
3262.1	0.265793
3261.52	0.265694
3260.94	0.26562
3260.35	0.265594
3259.77	0.265506
3259.18	0.265498
3258.6	0.265472
3258.01	0.265407
3257.43	0.265393
3256.84	0.265345
3256.26	0.265259
3255.67	0.26523
3255.08	0.265208
3254.5	0.265228
3253.91	0.265215
3253.33	0.265249
3252.74	0.265256
3252.16	0.265171
3251.57	0.265008
3250.98	0.264938
3250.4	0.264895
3249.81	0.264798
3249.23	0.264783
3248.64	0.264852
3248.05	0.264795
3247.47	0.264721
3246.88	0.264641
3246.29	0.264616
3245.71	0.264629
3245.12	0.264551
3244.53	0.264561
3243.94	0.26451
3243.36	0.264365
3242.77	0.264297
3242.18	0.26427
3241.6	0.264208
3241.01	0.264214
3240.42	0.26423
3239.83	0.264253
3239.24	0.264171
3238.66	0.264095
3238.07	0.264004
3237.48	0.263996
3236.89	0.263921
3236.3	0.263836
3235.72	0.26382
3235.13	0.263729
3234.54	0.263655
3233.95	0.263617
3233.36	0.263588
3232.77	0.263585
3232.18	0.263542
3231.59	0.263506
3231.01	0.263488
3230.42	0.263435
3229.83	0.263414
3229.24	0.263397
3228.65	0.263405
3228.06	0.263307
3227.47	0.263288
3226.88	0.263222
3226.29	0.26317
3225.7	0.263134
3225.11	0.26307
3224.52	0.26302
3223.93	0.26292
3223.34	0.262816
3222.75	0.262834
3222.16	0.262706
3221.57	0.262698
3220.98	0.262673
3220.39	0.262642
3219.8	0.262644
3219.21	0.26257
3218.61	0.262613
3218.02	0.262687
3217.43	0.262627
3216.84	0.262597
3216.25	0.262535
3215.66	0.262491
3215.07	0.262402
3214.48	0.262315
3213.88	0.262309
3213.29	0.262247
3212.7	0.262163
3212.11	0.262076
3211.52	0.261996
3210.92	0.261991
3210.33	0.261949
3209.74	0.261954
3209.15	0.261879
3208.56	0.26186
3207.96	0.261819
3207.37	0.261769
3206.78	0.26174
3206.18	0.261722
3205.59	0.261698
3205	0.261662
3204.41	0.261612
3203.81	0.261617
3203.22	0.261612
3202.63	0.261557
3202.03	0.261476
3201.44	0.261343
3200.85	0.261289
3200.25	0.261183
3199.66	0.261166
3199.06	0.261172
3198.47	0.261272
3197.88	0.261268
3197.28	0.261225
3196.69	0.261144
3196.09	0.261093
3195.5	0.260928
3194.9	0.260841
3194.31	0.260797
3193.71	0.260774
3193.12	0.260746
3192.52	0.260689
3191.93	0.260612
3191.33	0.260624
3190.74	0.260563
3190.14	0.260613
3189.55	0.260631
3188.95	0.260609
3188.36	0.260534
3187.76	0.260442
3187.17	0.260352
3186.57	0.260259
3185.98	0.260148
3185.38	0.260191
3184.78	0.260183
3184.19	0.260169
3183.59	0.260181
3182.99	0.260166
3182.4	0.260189
3181.8	0.260107
3181.21	0.260064
3180.61	0.260032
3180.01	0.259984
3179.41	0.259918
3178.82	0.259867
3178.22	0.259773
3177.62	0.259796
3177.03	0.259762
3176.43	0.259751
3175.83	0.259754
3175.23	0.259711
3174.64	0.259661
3174.04	0.259615
3173.44	0.259502
3172.84	0.259338
3172.25	0.259245
3171.65	0.259223
3171.05	0.259217
3170.45	0.259269
3169.85	0.259384
3169.25	0.259486
3168.66	0.259457
3168.06	0.259331
3167.46	0.259285
3166.86	0.2593
3166.26	0.25928
3165.66	0.25927
3165.06	0.259237
3164.46	0.259146
3163.86	0.25899
3163.27	0.258918
3162.67	0.258868
3162.07	0.258959
3161.47	0.259062
3160.87	0.259129
3160.27	0.259155
3159.67	0.259088
3159.07	0.259036
3158.47	0.259061
3157.87	0.259012
3157.27	0.259048
3156.67	0.259004
3156.07	0.258934
3155.47	0.258817
3154.87	0.258707
3154.27	0.258668
3153.66	0.258603
3153.06	0.258626
3152.46	0.258668
3151.86	0.258688
3151.26	0.258678
3150.66	0.258749
3150.06	0.258743
3149.46	0.258743
3148.86	0.258648
3148.25	0.258632
3147.65	0.25856
3147.05	0.258473
3146.45	0.258396
3145.85	0.258327
3145.24	0.258259
3144.64	0.258244
3144.04	0.258281
3143.44	0.258266
3142.84	0.258224
3142.23	0.258136
3141.63	0.25809
3141.03	0.25796
3140.42	0.257921
3139.82	0.257875
3139.22	0.257922
3138.62	0.257803
3138.01	0.257682
3137.41	0.257548
3136.81	0.257549
3136.2	0.257438
3135.6	0.257433
3135	0.257419
3134.39	0.257338
3133.79	0.257285
3133.18	0.257193
3132.58	0.257112
3131.98	0.257082
3131.37	0.256926
3130.77	0.256879
3130.16	0.256795
3129.56	0.256752
3128.95	0.256763
3128.35	0.256756
3127.75	0.256707
3127.14	0.256654
3126.54	0.25662
3125.93	0.256614
3125.33	0.256637
3124.72	0.256632
3124.12	0.256527
3123.51	0.256527
3122.9	0.256376
3122.3	0.256285
3121.69	0.256269
3121.09	0.256228
3120.48	0.256196
3119.88	0.256111
3119.27	0.255989
3118.66	0.255956
3118.06	0.255848
3117.45	0.255899
3116.85	0.255902
3116.24	0.255932
3115.63	0.256007
3115.03	0.256022
3114.42	0.255864
3113.81	0.25579
3113.21	0.255768
3112.6	0.255774
3111.99	0.25575
3111.38	0.255794
3110.78	0.255822
3110.17	0.255783
3109.56	0.2556
3108.95	0.255611
3108.35	0.255552
3107.74	0.255504
3107.13	0.255521
3106.52	0.255581
3105.92	0.255602
3105.31	0.255581
3104.7	0.255512
3104.09	0.255557
3103.48	0.255485
3102.87	0.255468
3102.27	0.255468
3101.66	0.255542
3101.05	0.255614
3100.44	0.255611
3099.83	0.25558
3099.22	0.255551
3098.61	0.255501
3098	0.255545
3097.39	0.255494
3096.78	0.255481
3096.17	0.255499
3095.57	0.255474
3094.96	0.255453
3094.35	0.255433
3093.74	0.255365
3093.13	0.255414
3092.52	0.255289
3091.91	0.255221
3091.3	0.255194
3090.69	0.255164
3090.07	0.255135
3089.46	0.255087
3088.85	0.254984
3088.24	0.254945
3087.63	0.254933
3087.02	0.254877
3086.41	0.254941
3085.8	0.254979
3085.19	0.254953
3084.58	0.254863
3083.97	0.254725
3083.35	0.254725
3082.74	0.25482
3082.13	0.254839
3081.52	0.254989
3080.91	0.255095
3080.3	0.25508
3079.68	0.254979
3079.07	0.254884
3078.46	0.254902
3077.85	0.254964
3077.23	0.254995
3076.62	0.255052
3076.01	0.255214
3075.4	0.255248
3074.78	0.25524
3074.17	0.2552
3073.56	0.255204
3072.95	0.255182
3072.33	0.255318
3071.72	0.255445
3071.11	0.255696
3070.49	0.255832
3069.88	0.255968
3069.27	0.255943
3068.65	0.25597
3068.04	0.256101
3067.42	0.256452
3066.81	0.256798
3066.2	0.257113
3065.58	0.257405
3064.97	0.257741
3064.35	0.258073
3063.74	0.258386
3063.12	0.258823
3062.51	0.259456
3061.89	0.25999
3061.28	0.260516
3060.66	0.260987
3060.05	0.26166
3059.43	0.262369
3058.82	0.262921
3058.2	0.263565
3057.59	0.26432
3056.97	0.26472
3056.36	0.265347
3055.74	0.265728
3055.13	0.26597
3054.51	0.2661
3053.89	0.266043
3053.28	0.265791
3052.66	0.265507
3052.05	0.265143
3051.43	0.264871
3050.81	0.264277
3050.2	0.263779
3049.58	0.263234
3048.96	0.262569
3048.35	0.261814
3047.73	0.261279
3047.11	0.260953
3046.5	0.260461
3045.88	0.259775
3045.26	0.259408
3044.64	0.258943
3044.03	0.258671
3043.41	0.258609
3042.79	0.258515
3042.17	0.258481
3041.56	0.258136
3040.94	0.257677
3040.32	0.257178
3039.7	0.256769
3039.08	0.256467
3038.47	0.256234
3037.85	0.255866
3037.23	0.255509
3036.61	0.255051
3035.99	0.254677
3035.37	0.254307
3034.75	0.254161
3034.14	0.253902
3033.52	0.253621
3032.9	0.253331
3032.28	0.253052
3031.66	0.252663
3031.04	0.252345
3030.42	0.252141
3029.8	0.252107
3029.18	0.251849
3028.56	0.251692
3027.94	0.251665
3027.32	0.251619
3026.7	0.251531
3026.08	0.251452
3025.46	0.251365
3024.84	0.251344
3024.22	0.251026
3023.6	0.250943
3022.98	0.250901
3022.36	0.25076
3021.74	0.250694
3021.11	0.250641
3020.49	0.25064
3019.87	0.250677
3019.25	0.250601
3018.63	0.250639
3018.01	0.250562
3017.39	0.250458
3016.77	0.250421
3016.14	0.250295
3015.52	0.25026
3014.9	0.250154
3014.28	0.250135
3013.66	0.250175
3013.03	0.250209
3012.41	0.250311
3011.79	0.250313
3011.17	0.250134
3010.54	0.250024
3009.92	0.249856
3009.3	0.249778
3008.68	0.249766
3008.05	0.249732
3007.43	0.249767
3006.81	0.249619
3006.18	0.249448
3005.56	0.249403
3004.94	0.249291
3004.31	0.249201
3003.69	0.249188
3003.07	0.249168
3002.44	0.249262
3001.82	0.249197
3001.19	0.24918
3000.57	0.249207
2999.95	0.24911
2999.32	0.248978
2998.7	0.248945
2998.07	0.248974
2997.45	0.248955
2996.82	0.248813
2996.2	0.248698
2995.57	0.248638
2994.95	0.248599
2994.32	0.248509
2993.7	0.248436
2993.07	0.248473
2992.45	0.248476
2991.82	0.248393
2991.2	0.248373
2990.57	0.248426
2989.95	0.248416
2989.32	0.248334
2988.69	0.248255
2988.07	0.248181
2987.44	0.248108
2986.82	0.248033
2986.19	0.248031
2985.56	0.248
2984.94	0.24785
2984.31	0.247887
2983.68	0.247822
2983.06	0.247736
2982.43	0.247654
2981.8	0.247701
2981.18	0.247717
2980.55	0.247679
2979.92	0.247622
2979.29	0.247735
2978.67	0.247646
2978.04	0.247634
2977.41	0.247521
2976.78	0.24762
2976.16	0.247601
2975.53	0.247538
2974.9	0.247473
2974.27	0.247429
2973.64	0.247348
2973.01	0.247217
2972.39	0.247007
2971.76	0.247226
2971.13	0.247288
2970.5	0.247331
2969.87	0.247427
2969.24	0.247392
2968.61	0.247274
2967.98	0.247087
2967.36	0.246964
2966.73	0.247062
2966.1	0.247069
2965.47	0.246972
2964.84	0.246957
2964.21	0.24676
2963.58	0.246633
2962.95	0.246621
2962.32	0.246601
2961.69	0.246556
2961.06	0.246604
2960.43	0.246512
2959.8	0.246494
2959.17	0.246521
2958.54	0.24667
2957.91	0.24677
2957.27	0.24674
2956.64	0.246663
2956.01	0.246639
2955.38	0.246559
2954.75	0.246543
2954.12	0.246587
2953.49	0.246656
2952.86	0.246642
2952.23	0.24657
2951.59	0.246479
2950.96	0.246476
2950.33	0.246429
2949.7	0.246416
2949.07	0.24644
2948.43	0.246482
2947.8	0.246418
2947.17	0.246441
2946.54	0.246336
2945.9	0.246243
2945.27	0.246171
2944.64	0.246135
2944.01	0.246177
2943.37	0.246191
2942.74	0.24625
2942.11	0.246466
2941.47	0.24648
2940.84	0.246372
2940.21	0.246331
2939.57	0.246249
2938.94	0.24616
2938.31	0.24601
2937.67	0.246022
2937.04	0.246055
2936.41	0.246007
2935.77	0.245901
2935.14	0.24592
2934.5	0.245904
2933.87	0.245843
2933.23	0.245758
2932.6	0.245768
2931.96	0.24566
2931.33	0.24547
2930.69	0.245389
2930.06	0.245328
2929.42	0.245233
2928.79	0.245237
2928.15	0.245147
2927.52	0.245207
2926.88	0.245048
2926.25	0.244932
2925.61	0.244976
2924.98	0.245013
2924.34	0.244967
2923.71	0.244945
2923.07	0.244798
2922.43	0.2447
2921.8	0.244505
2921.16	0.244557
2920.52	0.244634
2919.89	0.244712
2919.25	0.244627
2918.61	0.2446
2917.98	0.244589
2917.34	0.244518
2916.7	0.244434
2916.07	0.244474
2915.43	0.244409
2914.79	0.244351
2914.15	0.244253
2913.52	0.244209
2912.88	0.244187
2912.24	0.24415
2911.6	0.244046
2910.97	0.244071
2910.33	0.244025
2909.69	0.243956
2909.05	0.243912
2908.41	0.243788
2907.77	0.243721
2907.14	0.243689
2906.5	0.243777
2905.86	0.243861
2905.22	0.243833
2904.58	0.243826
2903.94	0.243838
2903.3	0.243719
2902.66	0.243715
2902.02	0.243637
2901.39	0.243646
2900.75	0.243556
2900.11	0.243491
2899.47	0.243625
2898.83	0.243664
2898.19	0.243627
2897.55	0.243663
2896.91	0.243425
2896.27	0.243289
2895.63	0.243069
2894.99	0.243048
2894.35	0.243185
2893.71	0.243265
2893.06	0.243377
2892.42	0.243308
2891.78	0.243149
2891.14	0.243096
2890.5	0.242935
2889.86	0.242834
2889.22	0.242815
2888.58	0.242884
2887.94	0.242897
2887.29	0.2427
2886.65	0.242748
2886.01	0.242699
2885.37	0.242649
2884.73	0.242631
2884.08	0.242668
2883.44	0.242641
2882.8	0.242601
2882.16	0.242543
2881.52	0.242643
2880.87	0.242493
2880.23	0.242498
2879.59	0.242475
2878.94	0.242506
2878.3	0.242427
2877.66	0.242461
2877.02	0.242413
2876.37	0.242379
2875.73	0.242265
2875.09	0.242337
2874.44	0.242328
2873.8	0.242407
2873.15	0.242367
2872.51	0.242356
2871.87	0.242312
2871.22	0.242246
2870.58	0.242157
2869.93	0.242074
2869.29	0.241887
2868.65	0.241851
2868	0.241758
2867.36	0.241622
2866.71	0.241666
2866.07	0.241697
2865.42	0.241782
2864.78	0.241963
2864.13	0.242051
2863.49	0.242245
2862.84	0.242231
2862.2	0.24206
2861.55	0.242019
2860.9	0.241915
2860.26	0.241967
2859.61	0.242062
2858.97	0.241972
2858.32	0.241837
2857.67	0.241715
2857.03	0.241591
2856.38	0.241539
2855.74	0.24143
2855.09	0.241564
2854.44	0.241674
2853.8	0.241662
2853.15	0.241612
2852.5	0.241627
2851.85	0.24144
2851.21	0.241341
2850.56	0.241217
2849.91	0.241247
2849.27	0.24127
2848.62	0.241281
2847.97	0.241254
2847.32	0.241245
2846.67	0.241121
2846.03	0.241133
2845.38	0.241279
2844.73	0.241319
2844.08	0.241351
2843.43	0.241393
2842.79	0.241364
2842.14	0.241348
2841.49	0.241187
2840.84	0.241094
2840.19	0.2412
2839.54	0.241063
2838.89	0.240874
2838.24	0.24073
2837.59	0.240663
2836.94	0.240687
2836.3	0.240706
2835.65	0.240872
2835	0.24093
2834.35	0.240795
2833.7	0.240578
2833.05	0.240413
2832.4	0.240271
2831.75	0.240235
2831.1	0.240281
2830.45	0.24037
2829.8	0.240288
2829.14	0.240199
2828.49	0.240194
2827.84	0.240245
2827.19	0.24022
2826.54	0.240264
2825.89	0.240285
2825.24	0.240243
2824.59	0.24026
2823.94	0.24018
2823.28	0.240068
2822.63	0.239984
2821.98	0.239914
2821.33	0.239832
2820.68	0.239696
2820.03	0.239744
2819.37	0.239942
2818.72	0.239999
2818.07	0.239922
2817.42	0.239904
2816.76	0.239924
2816.11	0.239911
2815.46	0.239752
2814.81	0.239846
2814.15	0.239866
2813.5	0.23991
2812.85	0.239798
2812.19	0.239677
2811.54	0.239659
2810.89	0.239546
2810.23	0.239349
2809.58	0.239262
2808.93	0.239286
2808.27	0.239405
2807.62	0.239468
2806.96	0.239497
2806.31	0.23949
2805.66	0.239314
2805	0.239223
2804.35	0.239076
2803.69	0.239099
2803.04	0.23908
2802.38	0.239055
2801.73	0.239081
2801.07	0.239108
2800.42	0.239189
2799.76	0.239195
2799.11	0.239102
2798.45	0.23906
2797.8	0.238962
2797.14	0.238829
2796.49	0.238773
2795.83	0.2387
2795.17	0.238725
2794.52	0.238606
2793.86	0.238606
2793.21	0.238793
2792.55	0.238908
2791.89	0.238891
2791.24	0.238836
2790.58	0.238819
2789.92	0.238728
2789.27	0.238554
2788.61	0.238531
2787.95	0.238501
2787.3	0.238505
2786.64	0.238429
2785.98	0.238396
2785.32	0.238612
2784.67	0.238505
2784.01	0.238566
2783.35	0.238487
2782.69	0.238399
2782.04	0.238496
2781.38	0.238528
2780.72	0.238507
2780.06	0.238475
2779.4	0.238366
2778.74	0.23839
2778.09	0.238419
2777.43	0.238456
2776.77	0.238442
2776.11	0.238502
2775.45	0.238395
2774.79	0.238218
2774.13	0.238205
2773.47	0.238307
2772.81	0.238417
2772.15	0.238351
2771.49	0.238226
2770.84	0.238074
2770.18	0.237935
2769.52	0.237844
2768.86	0.237787
2768.2	0.237988
2767.54	0.237965
2766.87	0.23804
2766.21	0.238086
2765.55	0.238063
2764.89	0.237995
2764.23	0.237843
2763.57	0.237686
2762.91	0.237902
2762.25	0.237874
2761.59	0.238042
2760.93	0.238051
2760.27	0.238111
2759.6	0.238096
2758.94	0.237907
2758.28	0.238019
2757.62	0.238198
2756.96	0.238024
2756.3	0.237969
2755.63	0.23779
2754.97	0.237704
2754.31	0.237647
2753.65	0.237676
2752.98	0.237911
2752.32	0.237888
2751.66	0.237862
2751	0.237931
2750.33	0.237912
2749.67	0.237873
2749.01	0.237855
2748.34	0.237717
2747.68	0.237542
2747.02	0.237343
2746.35	0.237248
2745.69	0.237072
2745.03	0.237133
2744.36	0.237318
2743.7	0.237452
2743.04	0.237431
2742.37	0.237542
2741.71	0.237547
2741.04	0.237369
2740.38	0.237192
2739.71	0.237258
2739.05	0.237262
2738.38	0.237265
2737.72	0.237217
2737.05	0.237089
2736.39	0.237078
2735.72	0.237084
2735.06	0.237078
2734.39	0.237144
2733.73	0.237111
2733.06	0.237113
2732.4	0.236838
2731.73	0.23649
2731.07	0.236528
2730.4	0.236501
2729.73	0.236392
2729.07	0.236426
2728.4	0.236441
2727.73	0.236528
2727.07	0.236523
2726.4	0.236482
2725.73	0.236714
2725.07	0.236595
2724.4	0.236536
2723.73	0.236363
2723.07	0.236254
2722.4	0.236191
2721.73	0.236205
2721.06	0.236194
2720.4	0.236357
2719.73	0.236253
2719.06	0.236374
2718.39	0.236231
2717.73	0.236064
2717.06	0.235975
2716.39	0.236007
2715.72	0.236088
2715.05	0.236165
2714.38	0.236196
2713.72	0.236308
2713.05	0.23613
2712.38	0.235943
2711.71	0.235818
2711.04	0.235903
2710.37	0.235956
2709.7	0.23582
2709.03	0.235905
2708.36	0.236072
2707.69	0.236068
2707.02	0.236036
2706.35	0.236027
2705.68	0.236098
2705.01	0.23595
2704.34	0.235704
2703.67	0.235692
2703	0.235729
2702.33	0.23573
2701.66	0.235786
2700.99	0.235853
2700.32	0.235852
2699.65	0.23576
2698.98	0.235847
2698.31	0.23572
2697.64	0.23556
2696.97	0.23549
2696.29	0.235585
2695.62	0.235509
2694.95	0.235459
2694.28	0.23549
2693.61	0.235541
2692.94	0.235454
2692.26	0.235559
2691.59	0.235422
2690.92	0.235456
2690.25	0.235396
2689.58	0.235471
2688.9	0.235533
2688.23	0.235587
2687.56	0.235632
2686.88	0.235715
2686.21	0.235424
2685.54	0.235289
2684.87	0.23527
2684.19	0.235234
2683.52	0.235187
2682.85	0.235258
2682.17	0.235228
2681.5	0.235336
2680.82	0.235067
2680.15	0.235238
2679.48	0.235415
2678.8	0.235455
2678.13	0.235397
2677.45	0.235289
2676.78	0.235207
2676.1	0.235044
2675.43	0.234627
2674.76	0.234749
2674.08	0.234642
2673.41	0.234738
2672.73	0.234693
2672.06	0.234689
2671.38	0.234738
2670.7	0.234708
2670.03	0.234629
2669.35	0.234736
2668.68	0.234649
2668	0.234743
2667.33	0.234708
2666.65	0.23486
2665.97	0.234981
2665.3	0.234969
2664.62	0.234879
2663.95	0.234989
2663.27	0.234934
2662.59	0.234993
2661.92	0.235111
2661.24	0.235294
2660.56	0.23529
2659.88	0.235109
2659.21	0.234855
2658.53	0.234826
2657.85	0.234673
2657.17	0.2347
2656.5	0.234796
2655.82	0.234876
2655.14	0.234996
2654.46	0.234969
2653.79	0.23505
2653.11	0.235031
2652.43	0.234978
2651.75	0.235078
2651.07	0.234997
2650.39	0.234971
2649.72	0.235128
2649.04	0.234898
2648.36	0.234885
2647.68	0.234682
2647	0.234729
2646.32	0.23475
2645.64	0.234746
2644.96	0.234884
2644.28	0.235185
2643.6	0.234997
2642.92	0.235052
2642.24	0.234944
2641.56	0.234955
2640.88	0.234802
2640.2	0.234617
2639.52	0.23457
2638.84	0.234618
2638.16	0.23463
2637.48	0.234766
2636.8	0.234815
2636.12	0.234959
2635.44	0.23479
2634.76	0.234622
2634.08	0.234576
2633.39	0.234514
2632.71	0.234509
2632.03	0.234596
2631.35	0.234568
2630.67	0.234638
2629.99	0.234372
2629.3	0.234457
2628.62	0.234379
2627.94	0.234337
2627.26	0.234306
2626.58	0.234172
2625.89	0.23404
2625.21	0.234064
2624.53	0.233775
2623.85	0.233703
2623.16	0.233751
2622.48	0.233822
2621.8	0.233923
2621.11	0.234051
2620.43	0.233909
2619.75	0.233685
2619.06	0.233495
2618.38	0.233384
2617.7	0.233483
2617.01	0.233391
2616.33	0.233503
2615.64	0.233822
2614.96	0.233604
2614.28	0.233396
2613.59	0.233341
2612.91	0.23333
2612.22	0.233363
2611.54	0.233312
2610.85	0.233303
2610.17	0.233347
2609.48	0.233149
2608.8	0.23291
2608.11	0.232819
2607.43	0.233065
2606.74	0.233258
2606.06	0.233368
2605.37	0.233493
2604.68	0.233522
2604	0.233481
2603.31	0.233585
2602.63	0.233613
2601.94	0.233596
2601.25	0.233443
2600.57	0.233302
2599.88	0.233332
2599.19	0.233405
2598.51	0.233418
2597.82	0.233582
2597.13	0.233662
2596.45	0.233565
2595.76	0.233517
2595.07	0.233332
2594.38	0.233386
2593.7	0.233368
2593.01	0.233143
2592.32	0.233181
2591.63	0.233414
2590.95	0.233622
2590.26	0.233772
2589.57	0.233633
2588.88	0.233594
2588.19	0.233389
2587.5	0.233245
2586.82	0.233237
2586.13	0.233109
2585.44	0.233393
2584.75	0.233392
2584.06	0.233361
2583.37	0.233262
2582.68	0.233164
2581.99	0.233303
2581.3	0.233246
2580.61	0.233149
2579.92	0.233511
2579.23	0.233393
2578.54	0.233443
2577.85	0.233553
2577.16	0.233491
2576.47	0.233493
2575.78	0.233496
2575.09	0.23348
2574.4	0.233443
2573.71	0.233264
2573.02	0.233044
2572.33	0.233175
2571.64	0.233143
2570.95	0.233135
2570.26	0.233355
2569.56	0.233305
2568.87	0.233306
2568.18	0.233473
2567.49	0.233373
2566.8	0.23343
2566.11	0.23366
2565.41	0.233531
2564.72	0.233551
2564.03	0.233536
2563.34	0.233359
2562.64	0.233269
2561.95	0.233206
2561.26	0.233262
2560.57	0.233248
2559.87	0.233029
2559.18	0.233088
2558.49	0.233205
2557.79	0.233149
2557.1	0.233112
2556.41	0.233239
2555.71	0.23332
2555.02	0.233141
2554.33	0.233011
2553.63	0.233158
2552.94	0.233273
2552.24	0.233405
2551.55	0.233525
2550.86	0.233541
2550.16	0.233664
2549.47	0.233624
2548.77	0.233488
2548.08	0.233662
2547.38	0.233595
2546.69	0.233753
2545.99	0.234031
2545.3	0.234271
2544.6	0.234749
2543.91	0.234951
2543.21	0.234797
2542.51	0.234788
2541.82	0.234732
2541.12	0.234905
2540.43	0.235102
2539.73	0.235434
2539.03	0.235857
2538.34	0.235915
2537.64	0.235668
2536.95	0.235813
2536.25	0.235866
2535.55	0.235905
2534.86	0.236014
2534.16	0.236178
2533.46	0.236283
2532.76	0.236176
2532.07	0.236094
2531.37	0.236323
2530.67	0.23637
2529.97	0.236319
2529.28	0.236681
2528.58	0.236746
2527.88	0.23701
2527.18	0.236961
2526.48	0.236973
2525.79	0.236981
2525.09	0.236877
2524.39	0.236884
2523.69	0.237179
2522.99	0.237348
2522.29	0.237602
2521.59	0.237166
2520.89	0.237095
2520.19	0.236692
2519.5	0.236622
2518.8	0.236626
2518.1	0.236925
2517.4	0.236917
2516.7	0.236936
2516	0.236736
2515.3	0.236698
2514.6	0.236281
2513.9	0.236017
2513.2	0.235866
2512.5	0.236063
2511.8	0.235919
2511.09	0.236043
2510.39	0.236217
2509.69	0.236258
2508.99	0.236012
2508.29	0.235539
2507.59	0.235194
2506.89	0.234916
2506.19	0.234821
2505.49	0.234597
2504.78	0.234535
2504.08	0.234596
2503.38	0.234569
2502.68	0.234391
2501.98	0.234266
2501.27	0.233998
2500.57	0.234026
2499.87	0.233937
2499.17	0.234032
2498.46	0.233959
2497.76	0.233924
2497.06	0.233688
2496.35	0.233459
2495.65	0.233152
2494.95	0.232984
2494.25	0.232829
2493.54	0.232905
2492.84	0.232726
2492.13	0.232902
2491.43	0.232979
2490.73	0.233119
2490.02	0.233105
2489.32	0.233127
2488.61	0.233023
2487.91	0.232932
2487.21	0.233005
2486.5	0.233083
2485.8	0.233052
2485.09	0.233171
2484.39	0.233165
2483.68	0.233212
2482.98	0.232966
2482.27	0.232618
2481.57	0.232611
2480.86	0.232205
2480.15	0.23199
2479.45	0.232079
2478.74	0.232068
2478.04	0.232171
2477.33	0.232211
2476.62	0.232182
2475.92	0.232274
2475.21	0.232123
2474.51	0.232221
2473.8	0.232201
2473.09	0.23209
2472.39	0.232184
2471.68	0.232081
2470.97	0.231971
2470.26	0.232002
2469.56	0.231749
2468.85	0.231572
2468.14	0.231264
2467.43	0.231265
2466.73	0.231194
2466.02	0.230967
2465.31	0.231076
2464.6	0.231283
2463.89	0.231472
2463.19	0.231689
2462.48	0.23174
2461.77	0.231862
2461.06	0.231533
2460.35	0.23119
2459.64	0.230986
2458.93	0.230823
2458.22	0.231105
2457.52	0.231184
2456.81	0.231178
2456.1	0.231225
2455.39	0.231154
2454.68	0.230888
2453.97	0.230704
2453.26	0.230839
2452.55	0.231144
2451.84	0.231154
2451.13	0.2312
2450.42	0.23124
2449.71	0.23138
2449	0.231206
2448.28	0.231266
2447.57	0.231409
2446.86	0.231625
2446.15	0.231594
2445.44	0.231537
2444.73	0.231217
2444.02	0.231168
2443.31	0.231151
2442.59	0.231138
2441.88	0.231105
2441.17	0.231263
2440.46	0.23139
2439.75	0.231444
2439.04	0.231345
2438.32	0.231293
2437.61	0.231372
2436.9	0.23121
2436.19	0.231151
2435.47	0.231138
2434.76	0.231129
2434.05	0.231213
2433.33	0.231166
2432.62	0.231124
2431.91	0.231476
2431.19	0.231523
2430.48	0.231485
2429.77	0.231288
2429.05	0.231039
2428.34	0.231001
2427.62	0.230813
2426.91	0.231115
2426.2	0.231406
2425.48	0.231657
2424.77	0.231557
2424.05	0.231525
2423.34	0.231191
2422.62	0.231371
2421.91	0.231191
2421.19	0.231361
2420.48	0.231222
2419.76	0.231276
2419.05	0.23119
2418.33	0.231165
2417.62	0.231094
2416.9	0.231418
2416.18	0.231284
2415.47	0.231432
2414.75	0.231263
2414.04	0.231268
2413.32	0.231303
2412.6	0.230982
2411.89	0.230937
2411.17	0.230874
2410.45	0.230865
2409.74	0.230857
2409.02	0.230852
2408.3	0.231079
2407.58	0.231303
2406.87	0.231167
2406.15	0.231182
2405.43	0.231216
2404.71	0.231174
2404	0.231229
2403.28	0.231315
2402.56	0.231329
2401.84	0.231328
2401.12	0.231405
2400.41	0.23108
2399.69	0.231003
2398.97	0.230942
2398.25	0.231011
2397.53	0.231058
2396.81	0.231249
2396.09	0.231334
2395.37	0.231575
2394.65	0.231262
2393.94	0.231312
2393.22	0.231147
2392.5	0.231175
2391.78	0.23101
2391.06	0.231143
2390.34	0.231086
2389.62	0.231076
2388.9	0.230834
2388.18	0.230982
2387.46	0.231034
2386.73	0.231457
2386.01	0.231264
2385.29	0.231394
2384.57	0.231274
2383.85	0.231131
2383.13	0.23099
2382.41	0.231086
2381.69	0.231367
2380.97	0.231645
2380.24	0.231644
2379.52	0.231653
2378.8	0.231432
2378.08	0.231556
2377.36	0.231637
2376.63	0.231647
2375.91	0.231813
2375.19	0.232122
2374.47	0.232483
2373.74	0.232153
2373.02	0.232111
2372.3	0.232027
2371.58	0.231571
2370.85	0.231407
2370.13	0.231346
2369.41	0.231582
2368.68	0.231559
2367.96	0.2315
2367.23	0.231818
2366.51	0.231654
2365.79	0.231444
2365.06	0.231512
2364.34	0.231664
2363.61	0.231582
2362.89	0.23121
2362.16	0.231075
2361.44	0.230854
2360.72	0.230814
2359.99	0.230954
2359.27	0.231301
2358.54	0.23181
2357.81	0.231976
2357.09	0.232008
2356.36	0.231663
2355.64	0.231422
2354.91	0.231381
2354.19	0.231385
2353.46	0.231662
2352.73	0.231663
2352.01	0.231713
2351.28	0.231984
2350.56	0.231748
2349.83	0.231666
2349.1	0.231534
2348.38	0.231234
2347.65	0.231125
2346.92	0.231021
2346.19	0.231042
2345.47	0.23108
2344.74	0.231173
2344.01	0.231407
2343.29	0.231391
2342.56	0.231469
2341.83	0.231581
2341.1	0.231834
2340.37	0.231806
2339.65	0.231924
2338.92	0.232078
2338.19	0.231913
2337.46	0.231639
2336.73	0.231536
2336	0.231155
2335.27	0.231199
2334.54	0.231597
2333.82	0.231988
2333.09	0.232199
2332.36	0.232264
2331.63	0.2323
2330.9	0.232165
2330.17	0.23174
2329.44	0.232
2328.71	0.232364
2327.98	0.232381
2327.25	0.232419
2326.52	0.232583
2325.79	0.232699
2325.06	0.232657
2324.33	0.232639
2323.59	0.232921
2322.86	0.233046
2322.13	0.232903
2321.4	0.23281
2320.67	0.232879
2319.94	0.233126
2319.21	0.233258
2318.48	0.233563
2317.74	0.233823
2317.01	0.234171
2316.28	0.234297
2315.55	0.23411
2314.82	0.23397
2314.08	0.233703
2313.35	0.233449
2312.62	0.233184
2311.89	0.233106
2311.15	0.233074
2310.42	0.233063
2309.69	0.232915
2308.95	0.233023
2308.22	0.232826
2307.49	0.232854
2306.75	0.232967
2306.02	0.232988
2305.29	0.232777
2304.55	0.232668
2303.82	0.232562
2303.08	0.232339
2302.35	0.232035
2301.62	0.231831
2300.88	0.231828
2300.15	0.231665
2299.41	0.231951
2298.68	0.232021
2297.94	0.231859
2297.21	0.231734
2296.47	0.231656
2295.74	0.231597
2295	0.231773
2294.27	0.231943
2293.53	0.232505
2292.79	0.23265
2292.06	0.232448
2291.32	0.232362
2290.59	0.232474
2289.85	0.231983
2289.11	0.231896
2288.38	0.23186
2287.64	0.231542
2286.9	0.231473
2286.17	0.231186
2285.43	0.231506
2284.69	0.231947
2283.96	0.231637
2283.22	0.231815
2282.48	0.231981
2281.74	0.231518
2281.01	0.231565
2280.27	0.231478
2279.53	0.231846
2278.79	0.231998
2278.05	0.231916
2277.32	0.231901
2276.58	0.231737
2275.84	0.231246
2275.1	0.231
2274.36	0.230902
2273.62	0.231011
2272.88	0.231289
2272.14	0.231613
2271.4	0.231771
2270.67	0.231665
2269.93	0.231624
2269.19	0.231361
2268.45	0.231438
2267.71	0.231467
2266.97	0.231514
2266.23	0.231582
2265.49	0.231604
2264.75	0.231585
2264.01	0.231851
2263.26	0.231695
2262.52	0.231538
2261.78	0.231505
2261.04	0.231684
2260.3	0.231682
2259.56	0.232
2258.82	0.23216
2258.08	0.23251
2257.34	0.232188
2256.59	0.231795
2255.85	0.231778
2255.11	0.231688
2254.37	0.231369
2253.63	0.231447
2252.88	0.231457
2252.14	0.231667
2251.4	0.231843
2250.66	0.231998
2249.91	0.232022
2249.17	0.23183
2248.43	0.231662
2247.68	0.231661
2246.94	0.231675
2246.2	0.231701
2245.45	0.232085
2244.71	0.232101
2243.97	0.232177
2243.22	0.231972
2242.48	0.231773
2241.74	0.231889
2240.99	0.232032
2240.25	0.232264
2239.5	0.23245
2238.76	0.232688
2238.01	0.232682
2237.27	0.232221
2236.52	0.232016
2235.78	0.231918
2235.03	0.231997
2234.29	0.232054
2233.54	0.232114
2232.8	0.232319
2232.05	0.23239
2231.31	0.232607
2230.56	0.232823
2229.81	0.232449
2229.07	0.232448
2228.32	0.232257
2227.57	0.232248
2226.83	0.232385
2226.08	0.232436
2225.33	0.232579
2224.59	0.232482
2223.84	0.232403
2223.09	0.232807
2222.35	0.233203
2221.6	0.233376
2220.85	0.233514
2220.1	0.23338
2219.36	0.233282
2218.61	0.232992
2217.86	0.233264
2217.11	0.233773
2216.36	0.233848
2215.62	0.233746
2214.87	0.233695
2214.12	0.233698
2213.37	0.233755
2212.62	0.233591
2211.87	0.233807
2211.12	0.2339
2210.37	0.233554
2209.62	0.233497
2208.87	0.233597
2208.13	0.233577
2207.38	0.233944
2206.63	0.233988
2205.88	0.234331
2205.13	0.234348
2204.38	0.234067
2203.63	0.233871
2202.87	0.233979
2202.12	0.23402
2201.37	0.234543
2200.62	0.234641
2199.87	0.23486
2199.12	0.234748
2198.37	0.234208
2197.62	0.23409
2196.87	0.234082
2196.12	0.234624
2195.36	0.235124
2194.61	0.235281
2193.86	0.235153
2193.11	0.234832
2192.36	0.234471
2191.6	0.234333
2190.85	0.234309
2190.1	0.234638
2189.35	0.234939
2188.59	0.23507
2187.84	0.235046
2187.09	0.235066
2186.33	0.23499
2185.58	0.234845
2184.83	0.235005
2184.07	0.234979
2183.32	0.235321
2182.57	0.235075
2181.81	0.235158
2181.06	0.235184
2180.3	0.235308
2179.55	0.235131
2178.8	0.234974
2178.04	0.234811
2177.29	0.234662
2176.53	0.234291
2175.78	0.234337
2175.02	0.234552
2174.27	0.234863
2173.51	0.234735
2172.76	0.234891
2172	0.23513
2171.25	0.234972
2170.49	0.235017
2169.73	0.23443
2168.98	0.234315
2168.22	0.234097
2167.47	0.234039
2166.71	0.234303
2165.95	0.234689
2165.2	0.234654
2164.44	0.235001
2163.68	0.234734
2162.93	0.235089
2162.17	0.23515
2161.41	0.235092
2160.65	0.23498
2159.9	0.235036
2159.14	0.234804
2158.38	0.234933
2157.62	0.235003
2156.87	0.235319
2156.11	0.235183
2155.35	0.23508
2154.59	0.234865
2153.83	0.234916
2153.07	0.235154
2152.32	0.235388
2151.56	0.235638
2150.8	0.235789
2150.04	0.235675
2149.28	0.235555
2148.52	0.235089
2147.76	0.235063
2147	0.235031
2146.24	0.235128
2145.48	0.23537
2144.72	0.23541
2143.96	0.235875
2143.2	0.235871
2142.44	0.235822
2141.68	0.235881
2140.92	0.235308
2140.16	0.235053
2139.4	0.23504
2138.64	0.235079
2137.88	0.235479
2137.11	0.235151
2136.35	0.235461
2135.59	0.235702
2134.83	0.235154
2134.07	0.234815
2133.31	0.234588
2132.54	0.234546
2131.78	0.234544
2131.02	0.234229
2130.26	0.234576
2129.5	0.234894
2128.73	0.234812
2127.97	0.234886
2127.21	0.234902
2126.44	0.235197
2125.68	0.235391
2124.92	0.235613
2124.16	0.236256
2123.39	0.236437
2122.63	0.236562
2121.86	0.236605
2121.1	0.23644
2120.34	0.235846
2119.57	0.235146
2118.81	0.234755
2118.04	0.23471
2117.28	0.234613
2116.51	0.235036
2115.75	0.235755
2114.99	0.236211
2114.22	0.236294
2113.46	0.236243
2112.69	0.2365
2111.92	0.236559
2111.16	0.236649
2110.39	0.2368
2109.63	0.236584
2108.86	0.236088
2108.1	0.235678
2107.33	0.235272
2106.56	0.235402
2105.8	0.235561
2105.03	0.235958
2104.26	0.236434
2103.5	0.236393
2102.73	0.23641
2101.96	0.236314
2101.2	0.236114
2100.43	0.235862
2099.66	0.23569
2098.89	0.235461
2098.13	0.235504
2097.36	0.235333
2096.59	0.235301
2095.82	0.235418
2095.06	0.235375
2094.29	0.235684
2093.52	0.236095
2092.75	0.236358
2091.98	0.236826
2091.21	0.236463
2090.44	0.23618
2089.67	0.236144
2088.91	0.23574
2088.14	0.236173
2087.37	0.236494
2086.6	0.23679
2085.83	0.236614
2085.06	0.235928
2084.29	0.235647
2083.52	0.235846
2082.75	0.235868
2081.98	0.236456
2081.21	0.236627
2080.44	0.236829
2079.67	0.236346
2078.9	0.235916
2078.12	0.235717
2077.35	0.235912
2076.58	0.235695
2075.81	0.236319
2075.04	0.236489
2074.27	0.236754
2073.5	0.236813
2072.72	0.236532
2071.95	0.236719
2071.18	0.236761
2070.41	0.236529
2069.64	0.237026
2068.86	0.237103
2068.09	0.237016
2067.32	0.237027
2066.55	0.236491
2065.77	0.236629
2065	0.236646
2064.23	0.236617
2063.45	0.236874
2062.68	0.237047
2061.91	0.236984
2061.13	0.236811
2060.36	0.236601
2059.58	0.236988
2058.81	0.23684
2058.04	0.236703
2057.26	0.236683
2056.49	0.23654
2055.71	0.236312
2054.94	0.236212
2054.16	0.236531
2053.39	0.237143
2052.61	0.23737
2051.84	0.237287
2051.06	0.237092
2050.29	0.236942
2049.51	0.236678
2048.73	0.23705
2047.96	0.237403
2047.18	0.237713
2046.41	0.237861
2045.63	0.237659
2044.85	0.2377
2044.08	0.237876
2043.3	0.238138
2042.52	0.238669
2041.75	0.238386
2040.97	0.237828
2040.19	0.237271
2039.42	0.236973
2038.64	0.237225
2037.86	0.237444
2037.08	0.237599
2036.31	0.237854
2035.53	0.237897
2034.75	0.237893
2033.97	0.238059
2033.19	0.238181
2032.41	0.238385
2031.64	0.238203
2030.86	0.237598
2030.08	0.237474
2029.3	0.237507
2028.52	0.237402
2027.74	0.23769
2026.96	0.238084
2026.18	0.238327
2025.4	0.238438
2024.62	0.23828
2023.84	0.238323
2023.06	0.238313
2022.28	0.238234
2021.5	0.238286
2020.72	0.238527
2019.94	0.238558
2019.16	0.238079
2018.38	0.237721
2017.6	0.238017
2016.82	0.238118
2016.04	0.238327
2015.25	0.238786
2014.47	0.238966
2013.69	0.238996
2012.91	0.238791
2012.13	0.238744
2011.35	0.2388
2010.56	0.238581
2009.78	0.23868
2009	0.238542
2008.22	0.238452
2007.43	0.238712
2006.65	0.238912
2005.87	0.239332
2005.09	0.239139
2004.3	0.239406
2003.52	0.239574
2002.74	0.239309
2001.95	0.239241
2001.17	0.239087
2000.39	0.239009
1999.6	0.239186
1998.82	0.23936
1998.03	0.239855
1997.25	0.239958
1996.46	0.240225
1995.68	0.239998
1994.9	0.239952
1994.11	0.240067
1993.33	0.239956
1992.54	0.24014
1991.75	0.240089
1990.97	0.240076
1990.18	0.240194
1989.4	0.240112
1988.61	0.240287
1987.83	0.240723
1987.04	0.240924
1986.25	0.240797
1985.47	0.240786
1984.68	0.240731
1983.9	0.240685
1983.11	0.24063
1982.32	0.240486
1981.54	0.24074
1980.75	0.240631
1979.96	0.24051
1979.17	0.24085
1978.39	0.240751
1977.6	0.240897
1976.81	0.240744
1976.02	0.240552
1975.24	0.240691
1974.45	0.240695
1973.66	0.24091
1972.87	0.241209
1972.08	0.241083
1971.29	0.240919
1970.5	0.241024
1969.72	0.241038
1968.93	0.241254
1968.14	0.241452
1967.35	0.241687
1966.56	0.24182
1965.77	0.241865
1964.98	0.241803
1964.19	0.241907
1963.4	0.241885
1962.61	0.241613
1961.82	0.241721
1961.03	0.241847
1960.24	0.241656
1959.45	0.241577
1958.66	0.241698
1957.87	0.2416
1957.08	0.24187
1956.28	0.242049
1955.49	0.2424
1954.7	0.242441
1953.91	0.24238
1953.12	0.242617
1952.33	0.242799
1951.54	0.242906
1950.74	0.243129
1949.95	0.242868
1949.16	0.242683
1948.37	0.24221
1947.57	0.24212
1946.78	0.242028
1945.99	0.242121
1945.2	0.242298
1944.4	0.242277
1943.61	0.24221
1942.82	0.242746
1942.02	0.242593
1941.23	0.242626
1940.43	0.242579
1939.64	0.242582
1938.85	0.242577
1938.05	0.242734
1937.26	0.243176
1936.46	0.243656
1935.67	0.243816
1934.87	0.243725
1934.08	0.243733
1933.28	0.243311
1932.49	0.243316
1931.69	0.243293
1930.9	0.242946
1930.1	0.243234
1929.31	0.243557
1928.51	0.243568
1927.72	0.244093
1926.92	0.244449
1926.12	0.244863
1925.33	0.244778
1924.53	0.24456
1923.73	0.244697
1922.94	0.244562
1922.14	0.244288
1921.34	0.244459
1920.55	0.244568
1919.75	0.244398
1918.95	0.244502
1918.16	0.244496
1917.36	0.24451
1916.56	0.244396
1915.76	0.244369
1914.96	0.244243
1914.17	0.244363
1913.37	0.244324
1912.57	0.24452
1911.77	0.244323
1910.97	0.244344
1910.17	0.244373
1909.37	0.244739
1908.58	0.244902
1907.78	0.245168
1906.98	0.245171
1906.18	0.244799
1905.38	0.24513
1904.58	0.245325
1903.78	0.245311
1902.98	0.245526
1902.18	0.245243
1901.38	0.245025
1900.58	0.244901
1899.78	0.244748
1898.98	0.245545
1898.17	0.24584
1897.37	0.245903
1896.57	0.246118
1895.77	0.245891
1894.97	0.246117
1894.17	0.246002
1893.37	0.246114
1892.57	0.246425
1891.76	0.24629
1890.96	0.246285
1890.16	0.246055
1889.36	0.2459
1888.55	0.245994
1887.75	0.245696
1886.95	0.246062
1886.15	0.246402
1885.34	0.246406
1884.54	0.246489
1883.74	0.246368
1882.93	0.246467
1882.13	0.246647
1881.33	0.246559
1880.52	0.24663
1879.72	0.246571
1878.91	0.246821
1878.11	0.246707
1877.31	0.246688
1876.5	0.246831
1875.7	0.247134
1874.89	0.247416
1874.09	0.247339
1873.28	0.247412
1872.48	0.247743
1871.67	0.247517
1870.87	0.247299
1870.06	0.24731
1869.26	0.247551
1868.45	0.247693
1867.64	0.247593
1866.84	0.247393
1866.03	0.247709
1865.23	0.248271
1864.42	0.248648
1863.61	0.248733
1862.81	0.248929
1862	0.248686
1861.19	0.248582
1860.38	0.248189
1859.58	0.24848
1858.77	0.249348
1857.96	0.249909
1857.15	0.249798
1856.35	0.249714
1855.54	0.249046
1854.73	0.248897
1853.92	0.248667
1853.11	0.248467
1852.31	0.248922
1851.5	0.249598
1850.69	0.249966
1849.88	0.250502
1849.07	0.250191
1848.26	0.250231
1847.45	0.250212
1846.64	0.249613
1845.83	0.249367
1845.02	0.249576
1844.21	0.249739
1843.4	0.250055
1842.59	0.250204
1841.78	0.250309
1840.97	0.250417
1840.16	0.250378
1839.35	0.250438
1838.54	0.250499
1837.73	0.250672
1836.92	0.25092
1836.11	0.25134
1835.3	0.251238
1834.48	0.251216
1833.67	0.251699
1832.86	0.252074
1832.05	0.252415
1831.24	0.252994
1830.42	0.253832
1829.61	0.254018
1828.8	0.25414
1827.99	0.253936
1827.17	0.254251
1826.36	0.254576
1825.55	0.255067
1824.73	0.255687
1823.92	0.256528
1823.11	0.256546
1822.29	0.257008
1821.48	0.256991
1820.67	0.257432
1819.85	0.257786
1819.04	0.25837
1818.22	0.258476
1817.41	0.258393
1816.6	0.257969
1815.78	0.257952
1814.97	0.257659
1814.15	0.257839
1813.34	0.257872
1812.52	0.257688
1811.71	0.257309
1810.89	0.25707
1810.07	0.256638
1809.26	0.256131
1808.44	0.255508
1807.63	0.255001
1806.81	0.25414
1805.99	0.2532
1805.18	0.252697
1804.36	0.252802
1803.54	0.252614
1802.73	0.253033
1801.91	0.253552
1801.09	0.253262
1800.28	0.253135
1799.46	0.253042
1798.64	0.252868
1797.82	0.253019
1797.01	0.252501
1796.19	0.252719
1795.37	0.252671
1794.55	0.251928
1793.73	0.251702
1792.92	0.251641
1792.1	0.251736
1791.28	0.25189
1790.46	0.25201
1789.64	0.252429
1788.82	0.25262
1788	0.252441
1787.18	0.252524
1786.36	0.252462
1785.54	0.252544
1784.72	0.252691
1783.9	0.252733
1783.08	0.252935
1782.26	0.252691
1781.44	0.252258
1780.62	0.252256
1779.8	0.251819
1778.98	0.252057
1778.16	0.252297
1777.34	0.252175
1776.52	0.252529
1775.69	0.252562
1774.87	0.252584
1774.05	0.252529
1773.23	0.252524
1772.41	0.253014
1771.59	0.253546
1770.76	0.253597
1769.94	0.253691
1769.12	0.253544
1768.3	0.253242
1767.47	0.252838
1766.65	0.252971
1765.83	0.253024
1765	0.253585
1764.18	0.253716
1763.36	0.25396
1762.53	0.253883
1761.71	0.253865
1760.88	0.253612
1760.06	0.253512
1759.24	0.253224
1758.41	0.252882
1757.59	0.252973
1756.76	0.253198
1755.94	0.253213
1755.11	0.253369
1754.29	0.253388
1753.46	0.253719
1752.64	0.253859
1751.81	0.253922
1750.99	0.254044
1750.16	0.254173
1749.34	0.253909
1748.51	0.253931
1747.68	0.25397
1746.86	0.253766
1746.03	0.25364
1745.2	0.253685
1744.38	0.253831
1743.55	0.25394
1742.72	0.253638
1741.9	0.253826
1741.07	0.253614
1740.24	0.253044
1739.41	0.253542
1738.59	0.253716
1737.76	0.254447
1736.93	0.255219
1736.1	0.255409
1735.27	0.255176
1734.45	0.25484
1733.62	0.254316
1732.79	0.254424
1731.96	0.254159
1731.13	0.254442
1730.3	0.255047
1729.47	0.255058
1728.64	0.254894
1727.81	0.255113
1726.98	0.254994
1726.15	0.254951
1725.32	0.254881
1724.49	0.25468
1723.66	0.254621
1722.83	0.254831
1722	0.255061
1721.17	0.255461
1720.34	0.25581
1719.51	0.256324
1718.68	0.25653
1717.85	0.256067
1717.02	0.255849
1716.19	0.255667
1715.35	0.255602
1714.52	0.255549
1713.69	0.25547
1712.86	0.255825
1712.03	0.255786
1711.19	0.25529
1710.36	0.255171
1709.53	0.25568
1708.7	0.256299
1707.86	0.256941
1707.03	0.256665
1706.2	0.256989
1705.36	0.256639
1704.53	0.25627
1703.7	0.255859
1702.86	0.255805
1702.03	0.256299
1701.19	0.256876
1700.36	0.25675
1699.53	0.257303
1698.69	0.257152
1697.86	0.257069
1697.02	0.256837
1696.19	0.256785
1695.35	0.257206
1694.52	0.257744
1693.68	0.257744
1692.85	0.257639
1692.01	0.257263
1691.17	0.257085
1690.34	0.25702
1689.5	0.257392
1688.67	0.257968
1687.83	0.258568
1686.99	0.258921
1686.16	0.259235
1685.32	0.259223
1684.48	0.259702
1683.65	0.259747
1682.81	0.259845
1681.97	0.260157
1681.13	0.260185
1680.3	0.260752
1679.46	0.261307
1678.62	0.261779
1677.78	0.262564
1676.94	0.262673
1676.11	0.262836
1675.27	0.263321
1674.43	0.263343
1673.59	0.263688
1672.75	0.264194
1671.91	0.264571
1671.07	0.264932
1670.23	0.265249
1669.39	0.265972
1668.56	0.266709
1667.72	0.266994
1666.88	0.267472
1666.04	0.267712
1665.2	0.268185
1664.36	0.268488
1663.51	0.268965
1662.67	0.269467
1661.83	0.270203
1660.99	0.270804
1660.15	0.27141
1659.31	0.271437
1658.47	0.271977
1657.63	0.272233
1656.79	0.272306
1655.94	0.272257
1655.1	0.272493
1654.26	0.272425
1653.42	0.272439
1652.58	0.272391
1651.73	0.272912
1650.89	0.273213
1650.05	0.273284
1649.21	0.273298
1648.36	0.273042
1647.52	0.272765
1646.68	0.272696
1645.83	0.272577
1644.99	0.272474
1644.14	0.272859
1643.3	0.27306
1642.46	0.273348
1641.61	0.27308
1640.77	0.273012
1639.92	0.272662
1639.08	0.271974
1638.23	0.271405
1637.39	0.271746
1636.54	0.2717
1635.7	0.271856
1634.85	0.271679
1634.01	0.271379
1633.16	0.271372
1632.32	0.271219
1631.47	0.271723
1630.62	0.272441
1629.78	0.27291
1628.93	0.272694
1628.09	0.273101
1627.24	0.27299
1626.39	0.272845
1625.55	0.272819
1624.7	0.273601
1623.85	0.273958
1623	0.273902
1622.16	0.273572
1621.31	0.273787
1620.46	0.273265
1619.61	0.272789
1618.76	0.27291
1617.92	0.273699
1617.07	0.274502
1616.22	0.274884
1615.37	0.275466
1614.52	0.275584
1613.67	0.275502
1612.82	0.276173
1611.97	0.276822
1611.13	0.277815
1610.28	0.278754
1609.43	0.279316
1608.58	0.279685
1607.73	0.279929
1606.88	0.280485
1606.03	0.281793
1605.18	0.282908
1604.32	0.284163
1603.47	0.285435
1602.62	0.287083
1601.77	0.288559
1600.92	0.290489
1600.07	0.292999
1599.22	0.295664
1598.37	0.298191
1597.51	0.301337
1596.66	0.304727
1595.81	0.308191
1594.96	0.312204
1594.11	0.316731
1593.25	0.321763
1592.4	0.32747
1591.55	0.333377
1590.7	0.340966
1589.84	0.349743
1588.99	0.35935
1588.14	0.372542
1587.28	0.388383
1586.43	0.408221
1585.58	0.433378
1584.72	0.464591
1583.87	0.503849
1583.01	0.55126
1582.16	0.605634
1581.3	0.666198
1580.45	0.728055
1579.59	0.785758
1578.74	0.835564
1577.88	0.873287
1577.03	0.898902
1576.17	0.90966
1575.32	0.908116
1574.46	0.894798
1573.61	0.872811
1572.75	0.842075
1571.89	0.80583
1571.04	0.764793
1570.18	0.721683
1569.33	0.675368
1568.47	0.628214
1567.61	0.581818
1566.75	0.538029
1565.9	0.498361
1565.04	0.464548
1564.18	0.436121
1563.33	0.41272
1562.47	0.392715
1561.61	0.375156
1560.75	0.360909
1559.89	0.348037
1559.04	0.338249
1558.18	0.331338
1557.32	0.325985
1556.46	0.32255
1555.6	0.320191
1554.74	0.317756
1553.88	0.31545
1553.02	0.312959
1552.16	0.310186
1551.3	0.30759
1550.44	0.304177
1549.58	0.301535
1548.72	0.299477
1547.86	0.296805
1547	0.294767
1546.14	0.292774
1545.28	0.290097
1544.42	0.28774
1543.56	0.285114
1542.7	0.283268
1541.84	0.281658
1540.98	0.280378
1540.11	0.279653
1539.25	0.278625
1538.39	0.277483
1537.53	0.2767
1536.67	0.276065
1535.8	0.275356
1534.94	0.27492
1534.08	0.274286
1533.22	0.273883
1532.35	0.273371
1531.49	0.27312
1530.63	0.272833
1529.76	0.272281
1528.9	0.272079
1528.04	0.272236
1527.17	0.272158
1526.31	0.271855
1525.44	0.271981
1524.58	0.271572
1523.72	0.270934
1522.85	0.270339
1521.99	0.270352
1521.12	0.271001
1520.26	0.271333
1519.39	0.271673
1518.53	0.271841
1517.66	0.271154
1516.8	0.270755
1515.93	0.270267
1515.06	0.269765
1514.2	0.269975
1513.33	0.269797
1512.47	0.270354
1511.6	0.270219
1510.73	0.270477
1509.87	0.270704
1509	0.270503
1508.13	0.269953
1507.26	0.269595
1506.4	0.269263
1505.53	0.269319
1504.66	0.269502
1503.79	0.27039
1502.93	0.27056
1502.06	0.270728
1501.19	0.270819
1500.32	0.270666
1499.45	0.27045
1498.58	0.270281
1497.71	0.27054
1496.85	0.270879
1495.98	0.270874
1495.11	0.271304
1494.24	0.271898
1493.37	0.271947
1492.5	0.27225
1491.63	0.2724
1490.76	0.272395
1489.89	0.27237
1489.02	0.271992
1488.15	0.271738
1487.28	0.271521
1486.4	0.271749
1485.53	0.272181
1484.66	0.272446
1483.79	0.272784
1482.92	0.272835
1482.05	0.273204
1481.18	0.273827
1480.3	0.27491
1479.43	0.276306
1478.56	0.277297
1477.69	0.277908
1476.82	0.278224
1475.94	0.277582
1475.07	0.277509
1474.2	0.277154
1473.32	0.276671
1472.45	0.275665
1471.58	0.274579
1470.7	0.273607
1469.83	0.273105
1468.96	0.272161
1468.08	0.271966
1467.21	0.271683
1466.33	0.271454
1465.46	0.271277
1464.58	0.271044
1463.71	0.271512
1462.83	0.271639
1461.96	0.271575
1461.08	0.271811
1460.21	0.271704
1459.33	0.271581
1458.46	0.271291
1457.58	0.270683
1456.71	0.270683
1455.83	0.27065
1454.95	0.271032
1454.08	0.271094
1453.2	0.271345
1452.32	0.271447
1451.45	0.271254
1450.57	0.270915
1449.69	0.270621
1448.82	0.270848
1447.94	0.271075
1447.06	0.270885
1446.18	0.271095
1445.3	0.271188
1444.43	0.271343
1443.55	0.271591
1442.67	0.271346
1441.79	0.271786
1440.91	0.27194
1440.03	0.272042
1439.15	0.272199
1438.28	0.272387
1437.4	0.272596
1436.52	0.272307
1435.64	0.272253
1434.76	0.272345
1433.88	0.272409
1433	0.272542
1432.12	0.272636
1431.24	0.2727
1430.36	0.27232
1429.47	0.272292
1428.59	0.272807
1427.71	0.272566
1426.83	0.272481
1425.95	0.272551
1425.07	0.272364
1424.19	0.272413
1423.31	0.272295
1422.42	0.272754
1421.54	0.273045
1420.66	0.272935
1419.78	0.272819
1418.89	0.273377
1418.01	0.273446
1417.13	0.274124
1416.25	0.274467
1415.36	0.274731
1414.48	0.274999
1413.6	0.274893
1412.71	0.274621
1411.83	0.27429
1410.94	0.273795
1410.06	0.273839
1409.18	0.27378
1408.29	0.273727
1407.41	0.27413
1406.52	0.274299
1405.64	0.274702
1404.75	0.274858
1403.87	0.274614
1402.98	0.274392
1402.1	0.274245
1401.21	0.273966
1400.33	0.274371
1399.44	0.274974
1398.55	0.275697
1397.67	0.276264
1396.78	0.276384
1395.89	0.276865
1395.01	0.277121
1394.12	0.277454
1393.23	0.278224
1392.35	0.278965
1391.46	0.27941
1390.57	0.280033
1389.68	0.279752
1388.8	0.279437
1387.91	0.278664
1387.02	0.278232
1386.13	0.277766
1385.24	0.277085
1384.36	0.27675
1383.47	0.27628
1382.58	0.275437
1381.69	0.274947
1380.8	0.274925
1379.91	0.275462
1379.02	0.275258
1378.13	0.27547
1377.24	0.27578
1376.35	0.27558
1375.46	0.275164
1374.57	0.274663
1373.68	0.274346
1372.79	0.274491
1371.9	0.274596
1371.01	0.275462
1370.12	0.276073
1369.23	0.276532
1368.33	0.276428
1367.44	0.276833
1366.55	0.276479
1365.66	0.276056
1364.77	0.27663
1363.88	0.276282
1362.98	0.276023
1362.09	0.276034
1361.2	0.276431
1360.31	0.276594
1359.41	0.276528
1358.52	0.276626
1357.63	0.276729
1356.73	0.276163
1355.84	0.275596
1354.95	0.275195
1354.05	0.274901
1353.16	0.274587
1352.26	0.274719
1351.37	0.274747
1350.47	0.274835
1349.58	0.275092
1348.69	0.274959
1347.79	0.275404
1346.9	0.275462
1346	0.275577
1345.1	0.275624
1344.21	0.275571
1343.31	0.275508
1342.42	0.275396
1341.52	0.275254
1340.63	0.27512
1339.73	0.27468
1338.83	0.274371
1337.94	0.274871
1337.04	0.274718
1336.14	0.27448
1335.25	0.274898
1334.35	0.275289
1333.45	0.275305
1332.55	0.274843
1331.66	0.274719
1330.76	0.274731
1329.86	0.274003
1328.96	0.273211
1328.06	0.273282
1327.16	0.273709
1326.27	0.273892
1325.37	0.273361
1324.47	0.273391
1323.57	0.27348
1322.67	0.273254
1321.77	0.272485
1320.87	0.272519
1319.97	0.27244
1319.07	0.272628
1318.17	0.272796
1317.27	0.273387
1316.37	0.273502
1315.47	0.273637
1314.57	0.273448
1313.67	0.273576
1312.77	0.273628
1311.86	0.273543
1310.96	0.273512
1310.06	0.273456
1309.16	0.273339
1308.26	0.273203
1307.36	0.273543
1306.45	0.274366
1305.55	0.275348
1304.65	0.276448
1303.75	0.278043
1302.84	0.27974
1301.94	0.281148
1301.04	0.281652
1300.13	0.282025
1299.23	0.282333
1298.33	0.282326
1297.42	0.282451
1296.52	0.282351
1295.62	0.28199
1294.71	0.281554
1293.81	0.280051
1292.9	0.278443
1292	0.277373
1291.09	0.276311
1290.19	0.275144
1289.28	0.274377
1288.38	0.273699
1287.47	0.273953
1286.57	0.273389
1285.66	0.273163
1284.75	0.273421
1283.85	0.273339
1282.94	0.27273
1282.04	0.272501
1281.13	0.271977
1280.22	0.272179
1279.32	0.272404
1278.41	0.272511
1277.5	0.273334
1276.59	0.274047
1275.69	0.274536
1274.78	0.274896
1273.87	0.275699
1272.96	0.276977
1272.05	0.278235
1271.15	0.279501
1270.24	0.281627
1269.33	0.283399
1268.42	0.284745
1267.51	0.285936
1266.6	0.287422
1265.69	0.288194
1264.78	0.288739
1263.87	0.289248
1262.96	0.290191
1262.05	0.290764
1261.14	0.290869
1260.23	0.291389
1259.32	0.291451
1258.41	0.291096
1257.5	0.290595
1256.59	0.289337
1255.68	0.288091
1254.77	0.287054
1253.86	0.285761
1252.95	0.284713
1252.03	0.283705
1251.12	0.283222
1250.21	0.282101
1249.3	0.280566
1248.39	0.278706
1247.47	0.277683
1246.56	0.277246
1245.65	0.276644
1244.73	0.276337
1243.82	0.276448
1242.91	0.276086
1241.99	0.275959
1241.08	0.274946
1240.17	0.274638
1239.25	0.274738
1238.34	0.274227
1237.42	0.274002
1236.51	0.273696
1235.6	0.27374
1234.68	0.274079
1233.77	0.274115
1232.85	0.274459
1231.94	0.274686
1231.02	0.274563
1230.1	0.274406
1229.19	0.273913
1228.27	0.273539
1227.36	0.273535
1226.44	0.27347
1225.52	0.273512
1224.61	0.273708
1223.69	0.273669
1222.77	0.273895
1221.86	0.273923
1220.94	0.273571
1220.02	0.273623
1219.11	0.273365
1218.19	0.273291
1217.27	0.273005
1216.35	0.27287
1215.43	0.273631
1214.52	0.273731
1213.6	0.273561
1212.68	0.273839
1211.76	0.274054
1210.84	0.273716
1209.92	0.273367
1209	0.273741
1208.08	0.27455
1207.16	0.2744
1206.24	0.274326
1205.32	0.274357
1204.4	0.274347
1203.48	0.274215
1202.56	0.274588
1201.64	0.275064
1200.72	0.275582
1199.8	0.275783
1198.88	0.27596
1197.96	0.276474
1197.04	0.277218
1196.11	0.278576
1195.19	0.279813
1194.27	0.281549
1193.35	0.283539
1192.43	0.286665
1191.5	0.291401
1190.58	0.297913
1189.66	0.306327
1188.74	0.316499
1187.81	0.328238
1186.89	0.3411
1185.97	0.354117
1185.04	0.367252
1184.12	0.379619
1183.2	0.388502
1182.27	0.39417
1181.35	0.395562
1180.42	0.393067
1179.5	0.386924
1178.57	0.377297
1177.65	0.366163
1176.72	0.354002
1175.8	0.340578
1174.87	0.327628
1173.95	0.316091
1173.02	0.305506
1172.1	0.296719
1171.17	0.289858
1170.24	0.285512
1169.32	0.283103
1168.39	0.281587
1167.46	0.280907
1166.54	0.280802
1165.61	0.279962
1164.68	0.278951
1163.76	0.278554
1162.83	0.277984
1161.9	0.277974
1160.97	0.277772
1160.05	0.278174
1159.12	0.278496
1158.19	0.278652
1157.26	0.278534
1156.33	0.279249
1155.4	0.279645
1154.47	0.280024
1153.55	0.280372
1152.62	0.280984
1151.69	0.281319
1150.76	0.281187
1149.83	0.281229
1148.9	0.281774
1147.97	0.282588
1147.04	0.283704
1146.11	0.285826
1145.18	0.287423
1144.25	0.289073
1143.31	0.29035
1142.38	0.292008
1141.45	0.292961
1140.52	0.294273
1139.59	0.29613
1138.66	0.29837
1137.73	0.300139
1136.79	0.301872
1135.86	0.303181
1134.93	0.305232
1134	0.306891
1133.06	0.308941
1132.13	0.31142
1131.2	0.313675
1130.26	0.315986
1129.33	0.318545
1128.4	0.320522
1127.46	0.322522
1126.53	0.324932
1125.6	0.327926
1124.66	0.33112
1123.73	0.334495
1122.79	0.338805
1121.86	0.343556
1120.92	0.347779
1119.99	0.351862
1119.05	0.355912
1118.12	0.359635
1117.18	0.36235
1116.25	0.364549
1115.31	0.366692
1114.37	0.368531
1113.44	0.371372
1112.5	0.374713
1111.56	0.378603
1110.63	0.383714
1109.69	0.388329
1108.75	0.392924
1107.82	0.397881
1106.88	0.403491
1105.94	0.409469
1105	0.41599
1104.07	0.423646
1103.13	0.432104
1102.19	0.440941
1101.25	0.450723
1100.31	0.461495
1099.37	0.472228
1098.44	0.482255
1097.5	0.490934
1096.56	0.497687
1095.62	0.502365
1094.68	0.504637
1093.74	0.506247
1092.8	0.508621
1091.86	0.513389
1090.92	0.522814
1089.98	0.539668
1089.04	0.566869
1088.1	0.608669
1087.16	0.666456
1086.21	0.743383
1085.27	0.951541
1084.33	1
1083.39	0.918011
1082.45	0.740532
1081.51	0.507844
1080.56	0.269105
1079.62	0.0789876
1078.68	0
1077.74	0.100397
1076.79	0.100327
1075.85	0.00793875
1074.91	0.0800633
1073.97	0.254014
1073.02	0.474641
1072.08	0.690656
1071.13	0.856256
1070.19	0.934509
1069.25	0.891204
1068.3	0.698571
1067.36	0.622088
1066.41	0.559263
1065.47	0.509914
1064.52	0.471686
1063.58	0.44164
1062.63	0.419299
1061.69	0.401141
1060.74	0.386439
1059.8	0.374858
1058.85	0.365484
1057.9	0.357402
1056.96	0.349941
1056.01	0.343959
1055.07	0.33804
1054.12	0.331982
1053.17	0.325863
1052.22	0.3213
1051.28	0.31677
1050.33	0.31286
1049.38	0.309107
1048.43	0.306553
1047.49	0.303899
1046.54	0.301222
1045.59	0.299101
1044.64	0.297392
1043.69	0.295202
1042.74	0.293584
1041.79	0.292341
1040.85	0.291038
1039.9	0.289968
1038.95	0.28889
1038	0.28839
1037.05	0.287248
1036.1	0.286262
1035.15	0.285313
1034.2	0.285068
1033.25	0.284526
1032.3	0.284098
1031.34	0.283774
1030.39	0.282883
1029.44	0.281865
1028.49	0.28115
1027.54	0.280089
1026.59	0.279998
1025.64	0.279705
1024.68	0.279707
1023.73	0.279739
1022.78	0.279285
1021.83	0.278745
1020.87	0.27869
1019.92	0.278929
1018.97	0.280261
1018.01	0.283122
1017.06	0.287387
1016.11	0.291735
1015.15	0.29615
1014.2	0.299266
1013.25	0.300828
1012.29	0.300135
1011.34	0.297574
1010.38	0.29397
1009.43	0.289711
1008.47	0.285402
1007.52	0.282534
1006.56	0.280426
1005.61	0.279147
1004.65	0.278668
1003.7	0.278477
1002.74	0.278189
1001.78	0.277721
1000.83	0.277339
999.871	0.277556
998.914	0.277128
997.957	0.276934
997	0.27695
996.043	0.276379
995.086	0.27568
994.128	0.275281
993.17	0.274853
992.212	0.274666
991.254	0.273689
990.296	0.273041
989.338	0.27276
988.379	0.271663
987.421	0.271376
986.462	0.271656
985.503	0.271808
984.543	0.27235
983.584	0.272523
982.624	0.272543
981.665	0.272451
980.705	0.271968
979.744	0.272084
978.784	0.272301
977.824	0.272545
976.863	0.273059
975.902	0.272871
974.941	0.272527
973.98	0.272216
973.019	0.2727
972.057	0.273467
971.096	0.274791
970.134	0.275718
969.172	0.275965
968.21	0.275918
967.247	0.275465
966.285	0.275137
965.322	0.275656
964.359	0.275876
963.396	0.276472
962.433	0.276965
961.47	0.277068
960.506	0.277111
959.542	0.27685
958.578	0.276938
957.614	0.276961
956.65	0.276737
955.686	0.276495
954.721	0.276724
953.756	0.276572
952.791	0.276203
951.826	0.276166
950.861	0.276684
949.895	0.27655
948.93	0.276633
947.964	0.276353
946.998	0.276288
946.032	0.276439
945.065	0.27668
944.099	0.27663
943.132	0.276827
942.165	0.276076
941.198	0.275817
940.231	0.274951
939.264	0.274666
938.296	0.274573
937.328	0.274251
936.361	0.274198
935.392	0.27395
934.424	0.274048
933.456	0.273943
932.487	0.2741
931.518	0.274203
930.549	0.273714
929.58	0.273016
928.611	0.272871
927.641	0.272463
926.672	0.272673
925.702	0.273129
924.732	0.273839
923.762	0.27378
922.791	0.2734
921.821	0.273132
920.85	0.272787
919.879	0.272613
918.908	0.272183
917.937	0.272355
916.966	0.272491
915.994	0.272371
915.022	0.271951
914.05	0.271794
913.078	0.27153
912.106	0.271283
911.134	0.270545
910.161	0.270718
909.188	0.27155
908.215	0.272083
907.242	0.272734
906.269	0.273116
905.295	0.273034
904.321	0.272641
903.348	0.271745
902.373	0.27169
901.399	0.271563
900.425	0.271658
899.45	0.272124
898.476	0.272058
897.501	0.271963
896.526	0.271877
895.55	0.271634
894.575	0.271249
893.599	0.271007
892.623	0.271418
891.647	0.271485
890.671	0.271411
889.695	0.271347
888.718	0.271736
887.742	0.272126
886.765	0.271967
885.788	0.27211
884.811	0.27255
883.833	0.272497
882.856	0.272455
881.878	0.27251
880.9	0.272993
879.922	0.273148
878.944	0.273113
877.965	0.273503
876.987	0.273599
876.008	0.273384
875.029	0.27322
874.05	0.273581
873.07	0.273601
872.091	0.273779
871.111	0.273871
870.131	0.274049
869.151	0.273976
868.171	0.273266
867.191	0.27282
866.21	0.272734
865.229	0.272789
864.248	0.272987
863.267	0.273073
862.286	0.273319
861.304	0.273638
860.323	0.274238
859.341	0.274623
858.359	0.27509
857.377	0.275318
856.394	0.274978
855.412	0.274974
854.429	0.27525
853.446	0.275606
852.463	0.275991
851.48	0.275747
850.496	0.275391
849.513	0.275304
848.529	0.275045
847.545	0.274904
846.561	0.275145
845.577	0.275517
844.592	0.27527
843.607	0.275687
842.623	0.276556
841.638	0.277853
840.652	0.278884
839.667	0.279551
838.681	0.280448
837.696	0.281179
836.71	0.28176
835.724	0.281932
834.737	0.282573
833.751	0.283108
832.764	0.284019
831.777	0.285178
830.79	0.286465
829.803	0.28746
828.816	0.287862
827.828	0.287309
826.841	0.286853
825.853	0.286343
824.865	0.285918
823.876	0.285785
822.888	0.285685
821.899	0.285941
820.911	0.285756
819.922	0.285853
818.932	0.285187
817.943	0.284939
816.954	0.284708
815.964	0.283928
814.974	0.283652
813.984	0.283988
812.994	0.283586
812.003	0.283226
811.013	0.282048
810.022	0.281755
809.031	0.28114
808.04	0.280064
807.048	0.279675
806.057	0.27958
805.065	0.278652
804.073	0.278473
803.081	0.278072
802.089	0.277728
801.097	0.277443
800.104	0.277497
799.111	0.27763
798.118	0.277554
797.125	0.27728
796.132	0.277322
795.139	0.276827
794.145	0.276839
793.151	0.276839
792.157	0.277408
791.163	0.278275
790.168	0.278488
789.174	0.278383
788.179	0.277721
787.184	0.27745
786.189	0.278013
785.194	0.278059
784.198	0.278541
783.203	0.279156
782.207	0.279099
781.211	0.278519
780.215	0.277928
779.218	0.278093
778.222	0.278632
777.225	0.278836
776.228	0.27872
775.231	0.279208
774.234	0.2793
773.236	0.278995
772.238	0.278928
771.241	0.279487
770.243	0.27997
769.244	0.279952
768.246	0.280115
767.247	0.281053
766.249	0.281276
765.25	0.281595
764.251	0.282248
763.251	0.283053
762.252	0.28315
761.252	0.283302
760.252	0.283919
759.252	0.284889
758.252	0.286091
757.252	0.288114
756.251	0.291358
755.25	0.296175
754.249	0.303764
753.248	0.314869
752.247	0.330829
751.246	0.351093
750.244	0.376163
749.242	0.405265
748.24	0.437261
747.238	0.470825
746.235	0.504517
745.233	0.534822
744.23	0.559087
743.227	0.572598
742.224	0.574622
741.221	0.562671
740.217	0.538692
739.213	0.505754
738.209	0.467785
737.205	0.429411
736.201	0.392874
735.197	0.361528
734.192	0.3367
733.187	0.317704
732.182	0.305507
731.177	0.297419
730.172	0.292659
729.166	0.289912
728.161	0.287528
727.155	0.286294
726.149	0.284621
725.142	0.283954
724.136	0.28391
723.129	0.283537
722.123	0.283641
721.116	0.283659
720.108	0.284374
719.101	0.285969
718.093	0.287394
717.086	0.289905
716.078	0.292398
715.07	0.295258
714.061	0.297476
713.053	0.298733
712.044	0.299825
711.035	0.301202
710.026	0.301487
709.017	0.301517
708.008	0.30118
706.998	0.301167
705.988	0.300408
704.979	0.298664
703.968	0.296938
702.958	0.294871
701.948	0.292613
700.937	0.290396
699.926	0.288478
698.915	0.287058
697.904	0.28605
696.892	0.285553
695.881	0.284416
694.869	0.283331
693.857	0.283002
692.845	0.282398
691.832	0.281873
690.82	0.281128
689.807	0.280793
688.794	0.280677
687.781	0.279341
686.768	0.279458
685.754	0.279711
684.741	0.279958
683.727	0.28001
682.713	0.280089
681.698	0.279934
680.684	0.280035
679.669	0.279601
678.655	0.279907
677.64	0.279823
676.625	0.280085
675.609	0.279985
674.594	0.279919
673.578	0.279451
672.562	0.280193
671.546	0.280009
670.53	0.279958
669.513	0.279763
668.497	0.279333
667.48	0.279344
666.463	0.279097
665.446	0.278895
664.428	0.27938
663.411	0.279162
662.393	0.279237
661.375	0.278658
660.357	0.278228
659.338	0.278128
658.32	0.278239
657.301	0.278478
656.282	0.279083
655.263	0.279182
654.244	0.278944
653.224	0.278404
652.205	0.278636
651.185	0.278344
650.165	0.278623
649.145	0.279062
648.124	0.279102
647.104	0.278891
646.083	0.278774
645.062	0.27909
644.041	0.279518
643.02	0.279954
641.998	0.279939
640.976	0.280522
639.954	0.28037
638.932	0.281256
637.91	0.284888
636.888	0.293693
635.865	0.310246
634.842	0.336481
633.819	0.369019
632.796	0.40231
631.772	0.426862
630.749	0.435289
629.725	0.424749
628.701	0.399302
627.677	0.366873
626.653	0.336893
625.628	0.313263
624.603	0.298514
623.578	0.291613
622.553	0.287948
621.528	0.285609
620.503	0.28393
619.477	0.283318
618.451	0.283142
617.425	0.282207
616.399	0.281635
615.372	0.28196
614.346	0.282339
613.319	0.282447
612.292	0.282704
611.265	0.283263
610.237	0.283097
609.21	0.282524
608.182	0.281959
607.154	0.282085
606.126	0.282387
605.098	0.282084
604.069	0.282201
603.04	0.282347
602.011	0.282328
600.982	0.282108
599.953	0.282041
598.924	0.282357
597.894	0.282311
596.864	0.281987
595.834	0.281506
594.804	0.281531
593.773	0.28152
592.743	0.281518
591.712	0.281508
590.681	0.2813
589.65	0.281111
588.619	0.280902
587.587	0.280446
586.555	0.280646
585.523	0.280921
584.491	0.281353
583.459	0.282095
582.426	0.281717
581.394	0.28191
580.361	0.281374
579.328	0.280993
578.294	0.281261
577.261	0.281795
576.227	0.282431
575.193	0.283822
574.159	0.285445
573.125	0.287279
572.091	0.288763
571.056	0.290551
570.021	0.292513
568.986	0.29429
567.951	0.296292
566.916	0.297407
565.88	0.299362
564.844	0.300469
563.808	0.301251
562.772	0.301261
561.736	0.301276
560.699	0.301763
559.663	0.30206
558.626	0.301308
557.589	0.301736
556.551	0.302479
555.514	0.303387
554.476	0.303342
553.438	0.303234
552.4	0.303148
551.362	0.303134
550.323	0.302268
549.285	0.30123
548.246	0.301388
547.207	0.301082
546.168	0.300131
545.128	0.299112
544.089	0.298242
543.049	0.297451
542.009	0.295946
540.969	0.294114
539.928	0.293471
538.888	0.292094
537.847	0.291337
536.806	0.290936
535.765	0.290462
534.723	0.290449
533.682	0.291192
532.64	0.291666
531.598	0.291741
530.556	0.291588
529.514	0.291458
528.471	0.290594
527.429	0.290258
526.386	0.29024
525.343	0.290558
524.299	0.291195
523.256	0.291045
522.212	0.291373
521.168	0.291669
520.124	0.291225
519.08	0.291152
518.036	0.291167
516.991	0.291507
515.946	0.291533
514.901	0.290498
513.856	0.290051
512.81	0.289418
511.765	0.288508
510.719	0.287631
509.673	0.288154
508.627	0.288745
507.58	0.288841
506.534	0.288496
505.487	0.288143
504.44	0.287503
503.393	0.28644
502.345	0.285531
501.298	0.285554
500.25	0.285526
499.202	0.285151
498.154	0.285532
497.106	0.286083
496.057	0.285766
495.008	0.285063
493.96	0.284833
492.91	0.28431
491.861	0.283883
490.812	0.28378
489.762	0.284605
488.712	0.285352
487.662	0.285135
486.612	0.285116
485.561	0.284885
484.51	0.284295
483.46	0.284061
482.408	0.283988
481.357	0.283273
480.306	0.282303
479.254	0.281765
478.202	0.280894
477.15	0.280104
476.098	0.280123
475.045	0.280301
473.993	0.280093
472.94	0.279801
471.887	0.279821
470.834	0.279867
469.78	0.279835
468.727	0.279482
467.673	0.279989
466.619	0.280118
465.565	0.279747
464.51	0.280362
463.456	0.281051
462.401	0.281586
461.346	0.282551
460.291	0.283441
459.235	0.284897
458.18	0.285888
457.124	0.286443
456.068	0.287342
455.012	0.288783
453.955	0.29017
452.899	0.291682
451.842	0.293866
450.785	0.29502
449.728	0.296099
448.67	0.296719
447.613	0.297508
446.555	0.298987
445.497	0.300588
444.439	0.301284
443.38	0.302258
442.322	0.30215
441.263	0.302694
440.204	0.302525
439.145	0.30273
438.086	0.30274
437.026	0.302334
435.966	0.301791
434.907	0.302195
433.846	0.302256
432.786	0.302516
431.725	0.302297
430.665	0.302897
429.604	0.302598
428.543	0.301884
427.481	0.301864
426.42	0.302253
425.358	0.302158
424.296	0.301965
423.234	0.301535
422.172	0.302176
421.109	0.301987
420.047	0.302415
418.984	0.302742
417.92	0.30354
416.857	0.304918
415.794	0.306457
414.73	0.307821
413.666	0.309879
412.602	0.311475
411.538	0.313056
410.473	0.314571
409.408	0.31586
408.343	0.317282
407.278	0.317964
406.213	0.318047
405.148	0.317891
404.082	0.316906
403.016	0.315332
401.95	0.314159
400.883	0.311938
399.817	0.309932
398.75	0.307615
397.683	0.305068
396.616	0.302937
395.549	0.300527
394.481	0.298417
393.414	0.296426
392.346	0.294648
391.278	0.293858
390.209	0.293297
389.141	0.29197
388.072	0.291488
387.003	0.290877
385.934	0.290404
384.865	0.289554
383.795	0.289652
382.726	0.289556
381.656	0.289775
380.586	0.289381
379.515	0.289391
378.445	0.289321
377.374	0.288826
376.303	0.287661
375.232	0.28733
374.161	0.286591
373.089	0.286684
372.017	0.286452
370.946	0.28606
369.873	0.286578
368.801	0.285948
367.729	0.285448
366.656	0.285278
365.583	0.284921
364.51	0.284619
363.436	0.283668
362.363	0.283393
361.289	0.283736
360.215	0.28342
359.141	0.28315
358.067	0.282839
356.992	0.283008
355.917	0.283259
354.842	0.283691
353.767	0.2841
352.692	0.284882
351.616	0.285582
350.541	0.28559
349.465	0.286411
348.388	0.287499
347.312	0.28896
346.236	0.290103
345.159	0.290678
344.082	0.291954
343.005	0.292707
341.927	0.29268
340.85	0.292972
339.772	0.293548
338.694	0.295218
337.616	0.29634
336.537	0.297392
335.459	0.299189
334.38	0.300722
333.301	0.301267
332.222	0.30236
331.142	0.30376
330.063	0.305974
328.983	0.30742
327.903	0.308729
326.823	0.310392
325.742	0.311379
324.662	0.312284
323.581	0.314016
322.5	0.315703
321.418	0.317854
320.337	0.319901
319.255	0.322161
318.173	0.323884
317.091	0.324819
316.009	0.32587
314.927	0.326508
313.844	0.326721
312.761	0.326863
311.678	0.325975
310.595	0.325011
309.511	0.32415
308.428	0.32286
307.344	0.322377
306.26	0.322302
305.175	0.322195
304.091	0.322056
303.006	0.320934
301.921	0.320509
300.836	0.3204
299.751	0.319425
298.665	0.318612
297.579	0.318197
296.493	0.317674
295.407	0.316819
294.321	0.315951
293.234	0.315635
292.148	0.315341
291.061	0.31484
289.974	0.314655
288.886	0.315557
287.799	0.316368
286.711	0.317196
285.623	0.318595
284.535	0.320103
283.446	0.321204
282.358	0.321915
281.269	0.322768
280.18	0.32396
279.09	0.324406
278.001	0.324841
276.911	0.325706
275.822	0.325936
274.731	0.326501
273.641	0.326152
272.551	0.326503
271.46	0.327555
270.369	0.328236
269.278	0.329234
268.187	0.329788
267.095	0.330525
266.004	0.331529
264.912	0.331632
263.82	0.332266
262.727	0.332334
261.635	0.331354
260.542	0.330982
259.449	0.330658
258.356	0.330713
257.262	0.330358
256.169	0.330097
255.075	0.329679
253.981	0.328972
252.887	0.327645
251.793	0.326117
250.698	0.324675
249.603	0.323054
248.508	0.320725
247.413	0.318921
246.317	0.316259
245.222	0.313846
244.126	0.310727
243.03	0.307103
241.934	0.304515
240.837	0.302365
239.741	0.300377
238.644	0.299158
237.547	0.297396
236.449	0.296446
235.352	0.295228
234.254	0.294327
233.156	0.294346
232.058	0.293972
230.96	0.2939
229.861	0.293669
228.762	0.293557
227.663	0.293991
226.564	0.294317
225.465	0.294941
224.365	0.296482
223.265	0.297389
222.165	0.298188
221.065	0.299048
219.965	0.299351
218.864	0.299954
217.763	0.3004
216.662	0.301344
215.561	0.302833
214.459	0.304117
213.358	0.304879
212.256	0.305991
211.154	0.307079
210.051	0.308415
208.949	0.309887
207.846	0.311496
206.743	0.312092
205.64	0.313213
204.537	0.313956
203.433	0.31511
202.329	0.315902
201.225	0.316953
200.121	0.317874
199.017	0.318384
197.912	0.318665
196.807	0.319451
195.702	0.320538
194.597	0.321921
193.491	0.32275
192.386	0.323896
191.28	0.324495
190.174	0.325832
189.067	0.327095
187.961	0.328093
186.854	0.329371
185.747	0.331617
184.64	0.333596
183.533	0.335933
182.425	0.337952
181.317	0.341903
180.209	0.345373
179.101	0.348682
177.993	0.351943
176.884	0.356273
175.775	0.360101
174.666	0.363635
173.557	0.366686
172.448	0.371528
171.338	0.374871
170.228	0.377567
169.118	0.378879
168.008	0.379058
166.897	0.378635
165.786	0.377196
164.675	0.374932
163.564	0.373147
162.453	0.37047
161.341	0.368524
160.229	0.366966
159.117	0.366376
158.005	0.366942
156.893	0.367839
155.78	0.369283
154.667	0.372089
153.554	0.375213
152.441	0.379534
151.327	0.384105
150.214	0.388957
149.1	0.393658
147.986	0.398051
146.871	0.403093
145.757	0.408065
144.642	0.412772
143.527	0.417489
142.412	0.421979
141.296	0.427231
140.181	0.433058
139.065	0.439896
137.949	0.446955
136.833	0.454437
135.716	0.460631
134.599	0.467359
133.482	0.474008
132.365	0.481226
131.248	0.48804
130.13	0.49561
129.013	0.502188
127.895	0.510553
126.777	0.51801
125.658	0.527069
124.54	0.535535
123.421	0.545175
122.302	0.555548
121.182	0.56659
120.063	0.577231
118.943	0.588817
117.823	0.600646
116.703	0.612808
115.583	0.623776
114.462	0.634803
113.342	0.645583
112.221	0.6554
111.1	0.663367
109.978	0.668664
108.857	0.67138
107.735	0.672446
106.613	0.669654
105.49	0.66555
104.368	0.659229
103.245	0.652737
102.122	0.646958
100.999	0.642257
