3801.25	0.230029
3800.75	0.230004
3800.24	0.229946
3799.74	0.229887
3799.23	0.229871
3798.73	0.22986
3798.22	0.229828
3797.72	0.229811
3797.21	0.229796
3796.71	0.229804
3796.2	0.229761
3795.69	0.229739
3795.19	0.22973
3794.68	0.229713
3794.18	0.229651
3793.67	0.229609
3793.16	0.229569
3792.66	0.229542
3792.15	0.229503
3791.65	0.229514
3791.14	0.229524
3790.63	0.229505
3790.13	0.229484
3789.62	0.229436
3789.11	0.229422
3788.61	0.229359
3788.1	0.229312
3787.59	0.2293
3787.09	0.229297
3786.58	0.229268
3786.07	0.229288
3785.56	0.229241
3785.06	0.229233
3784.55	0.229188
3784.04	0.229147
3783.53	0.229113
3783.03	0.229117
3782.52	0.229128
3782.01	0.229143
3781.5	0.229128
3780.99	0.229102
3780.49	0.229082
3779.98	0.229057
3779.47	0.229007
3778.96	0.229007
3778.45	0.229006
3777.95	0.228971
3777.44	0.228932
3776.93	0.228875
3776.42	0.228842
3775.91	0.228797
3775.4	0.228776
3774.89	0.228778
3774.39	0.228762
3773.88	0.228729
3773.37	0.228717
3772.86	0.228677
3772.35	0.228641
3771.84	0.228618
3771.33	0.228624
3770.82	0.228567
3770.31	0.228497
3769.8	0.228499
3769.29	0.228519
3768.78	0.228455
3768.27	0.228405
3767.76	0.228403
3767.25	0.228377
3766.74	0.228332
3766.23	0.228271
3765.72	0.228289
3765.21	0.228288
3764.7	0.228248
3764.19	0.228241
3763.68	0.228256
3763.17	0.228235
3762.66	0.228216
3762.15	0.228165
3761.64	0.228154
3761.13	0.228104
3760.62	0.228095
3760.11	0.228077
3759.6	0.228075
3759.08	0.228069
3758.57	0.228045
3758.06	0.228013
3757.55	0.227937
3757.04	0.227899
3756.53	0.22785
3756.02	0.227799
3755.5	0.227839
3754.99	0.227873
3754.48	0.227878
3753.97	0.227805
3753.46	0.227714
3752.95	0.227683
3752.43	0.227619
3751.92	0.227571
3751.41	0.227583
3750.9	0.22765
3750.38	0.227673
3749.87	0.227644
3749.36	0.227609
3748.85	0.227563
3748.33	0.227558
3747.82	0.2275
3747.31	0.227444
3746.8	0.227439
3746.28	0.227415
3745.77	0.227402
3745.26	0.227323
3744.74	0.227297
3744.23	0.2273
3743.72	0.227303
3743.2	0.227283
3742.69	0.227243
3742.18	0.227235
3741.66	0.227197
3741.15	0.227138
3740.64	0.22713
3740.12	0.227096
3739.61	0.227058
3739.09	0.227047
3738.58	0.227035
3738.07	0.227027
3737.55	0.227003
3737.04	0.227031
3736.52	0.22706
3736.01	0.227041
3735.49	0.227042
3734.98	0.227064
3734.46	0.22704
3733.95	0.226943
3733.43	0.226837
3732.92	0.226748
3732.4	0.226721
3731.89	0.226691
3731.37	0.22668
3730.86	0.226705
3730.34	0.226665
3729.83	0.226634
3729.31	0.22659
3728.8	0.226542
3728.28	0.226554
3727.77	0.226527
3727.25	0.2265
3726.74	0.226485
3726.22	0.226438
3725.7	0.226477
3725.19	0.226487
3724.67	0.226451
3724.16	0.226416
3723.64	0.22638
3723.12	0.226362
3722.61	0.226299
3722.09	0.226208
3721.57	0.226145
3721.06	0.226139
3720.54	0.226099
3720.02	0.22607
3719.51	0.226104
3718.99	0.22617
3718.47	0.226202
3717.96	0.226115
3717.44	0.226083
3716.92	0.226092
3716.4	0.226038
3715.89	0.225998
3715.37	0.225989
3714.85	0.226003
3714.33	0.225946
3713.82	0.225913
3713.3	0.22592
3712.78	0.225884
3712.26	0.225854
3711.75	0.225801
3711.23	0.225774
3710.71	0.225703
3710.19	0.225652
3709.67	0.225692
3709.15	0.225665
3708.64	0.225595
3708.12	0.225584
3707.6	0.225563
3707.08	0.225579
3706.56	0.22551
3706.04	0.225542
3705.52	0.225541
3705	0.225546
3704.49	0.225518
3703.97	0.225486
3703.45	0.225472
3702.93	0.225451
3702.41	0.225356
3701.89	0.225335
3701.37	0.225258
3700.85	0.225254
3700.33	0.225252
3699.81	0.225204
3699.29	0.225201
3698.77	0.225194
3698.25	0.225139
3697.73	0.225134
3697.21	0.225104
3696.69	0.225102
3696.17	0.225106
3695.65	0.225078
3695.13	0.225032
3694.61	0.224989
3694.09	0.224908
3693.57	0.22486
3693.05	0.224854
3692.53	0.224892
3692.01	0.224907
3691.49	0.22489
3690.96	0.224865
3690.44	0.224869
3689.92	0.224826
3689.4	0.22475
3688.88	0.224717
3688.36	0.224703
3687.84	0.224661
3687.32	0.22462
3686.79	0.224609
3686.27	0.22461
3685.75	0.224611
3685.23	0.224592
3684.71	0.22461
3684.19	0.224564
3683.66	0.224477
3683.14	0.224457
3682.62	0.224449
3682.1	0.224452
3681.57	0.224454
3681.05	0.224449
3680.53	0.224444
3680.01	0.224395
3679.48	0.224279
3678.96	0.22425
3678.44	0.224199
3677.92	0.224155
3677.39	0.224109
3676.87	0.224153
3676.35	0.224155
3675.82	0.224174
3675.3	0.224118
3674.78	0.224105
3674.25	0.224054
3673.73	0.224
3673.21	0.223966
3672.68	0.224008
3672.16	0.223942
3671.64	0.223894
3671.11	0.223835
3670.59	0.223839
3670.06	0.223878
3669.54	0.223854
3669.02	0.22386
3668.49	0.223836
3667.97	0.223796
3667.44	0.223727
3666.92	0.223676
3666.39	0.22368
3665.87	0.223669
3665.34	0.223627
3664.82	0.223621
3664.29	0.223585
3663.77	0.223568
3663.24	0.223527
3662.72	0.223516
3662.19	0.223544
3661.67	0.223514
3661.14	0.223486
3660.62	0.223459
3660.09	0.223395
3659.57	0.223342
3659.04	0.223271
3658.52	0.223263
3657.99	0.223274
3657.46	0.223251
3656.94	0.22323
3656.41	0.223245
3655.89	0.223237
3655.36	0.223226
3654.83	0.223192
3654.31	0.223176
3653.78	0.223117
3653.25	0.223089
3652.73	0.223031
3652.2	0.222989
3651.67	0.222939
3651.15	0.222897
3650.62	0.222852
3650.09	0.222817
3649.57	0.222772
3649.04	0.222832
3648.51	0.222813
3647.99	0.222811
3647.46	0.222775
3646.93	0.222758
3646.4	0.222717
3645.88	0.222705
3645.35	0.222702
3644.82	0.222717
3644.29	0.22271
3643.76	0.222667
3643.24	0.222634
3642.71	0.222611
3642.18	0.222595
3641.65	0.222576
3641.12	0.222568
3640.6	0.222463
3640.07	0.222415
3639.54	0.222347
3639.01	0.22237
3638.48	0.222384
3637.95	0.222415
3637.42	0.222411
3636.9	0.222387
3636.37	0.222314
3635.84	0.222318
3635.31	0.222294
3634.78	0.222299
3634.25	0.222254
3633.72	0.222235
3633.19	0.222158
3632.66	0.222075
3632.13	0.222016
3631.6	0.222039
3631.07	0.222011
3630.54	0.222036
3630.01	0.221964
3629.48	0.221963
3628.95	0.221928
3628.42	0.221848
3627.89	0.22183
3627.36	0.221802
3626.83	0.221783
3626.3	0.221829
3625.77	0.221781
3625.24	0.22176
3624.71	0.221772
3624.18	0.221739
3623.65	0.221732
3623.12	0.221672
3622.59	0.221668
3622.06	0.221679
3621.52	0.221653
3620.99	0.221592
3620.46	0.221588
3619.93	0.221533
3619.4	0.2215
3618.87	0.22147
3618.34	0.221434
3617.8	0.221374
3617.27	0.221336
3616.74	0.2213
3616.21	0.221334
3615.68	0.221314
3615.15	0.221328
3614.61	0.221324
3614.08	0.221317
3613.55	0.221301
3613.02	0.221316
3612.48	0.221286
3611.95	0.221298
3611.42	0.221266
3610.89	0.22123
3610.35	0.221153
3609.82	0.221108
3609.29	0.22105
3608.75	0.221009
3608.22	0.220899
3607.69	0.22088
3607.16	0.220849
3606.62	0.220838
3606.09	0.220802
3605.56	0.220807
3605.02	0.220769
3604.49	0.220774
3603.95	0.220783
3603.42	0.220807
3602.89	0.220774
3602.35	0.220741
3601.82	0.220674
3601.29	0.220593
3600.75	0.220495
3600.22	0.220527
3599.68	0.220571
3599.15	0.22064
3598.61	0.220656
3598.08	0.220643
3597.54	0.220576
3597.01	0.22052
3596.47	0.220433
3595.94	0.220445
3595.41	0.220407
3594.87	0.220396
3594.34	0.220355
3593.8	0.220327
3593.26	0.220307
3592.73	0.220319
3592.19	0.22033
3591.66	0.220295
3591.12	0.220247
3590.59	0.220153
3590.05	0.22008
3589.52	0.220033
3588.98	0.22
3588.44	0.219969
3587.91	0.219995
3587.37	0.219991
3586.84	0.220022
3586.3	0.219988
3585.76	0.219966
3585.23	0.219946
3584.69	0.219912
3584.15	0.219843
3583.62	0.219821
3583.08	0.219836
3582.54	0.219804
3582.01	0.21976
3581.47	0.219757
3580.93	0.219753
3580.4	0.219757
3579.86	0.219726
3579.32	0.219708
3578.78	0.219713
3578.25	0.219689
3577.71	0.219639
3577.17	0.219631
3576.63	0.219556
3576.1	0.219517
3575.56	0.219491
3575.02	0.219442
3574.48	0.219442
3573.94	0.219455
3573.41	0.219402
3572.87	0.219401
3572.33	0.219332
3571.79	0.219321
3571.25	0.219304
3570.71	0.219258
3570.17	0.219245
3569.64	0.219285
3569.1	0.21925
3568.56	0.219272
3568.02	0.219282
3567.48	0.219278
3566.94	0.219233
3566.4	0.219217
3565.86	0.219145
3565.32	0.219082
3564.78	0.218988
3564.24	0.218966
3563.71	0.218921
3563.17	0.218928
3562.63	0.218906
3562.09	0.218898
3561.55	0.218819
3561.01	0.218768
3560.47	0.218768
3559.93	0.218759
3559.39	0.218709
3558.85	0.218725
3558.3	0.218696
3557.76	0.218632
3557.22	0.218591
3556.68	0.21856
3556.14	0.218569
3555.6	0.218542
3555.06	0.218519
3554.52	0.218507
3553.98	0.218517
3553.44	0.21851
3552.9	0.218488
3552.36	0.218447
3551.81	0.218436
3551.27	0.218427
3550.73	0.218371
3550.19	0.218362
3549.65	0.21839
3549.11	0.218369
3548.56	0.218349
3548.02	0.218294
3547.48	0.218249
3546.94	0.218219
3546.4	0.218162
3545.85	0.218165
3545.31	0.218141
3544.77	0.218124
3544.23	0.218127
3543.68	0.218088
3543.14	0.218043
3542.6	0.217978
3542.06	0.217919
3541.51	0.217888
3540.97	0.217805
3540.43	0.217783
3539.88	0.217781
3539.34	0.217803
3538.8	0.217805
3538.26	0.217814
3537.71	0.217844
3537.17	0.217836
3536.62	0.217778
3536.08	0.217756
3535.54	0.217714
3534.99	0.217701
3534.45	0.217704
3533.91	0.217709
3533.36	0.217674
3532.82	0.217609
3532.27	0.217484
3531.73	0.217478
3531.18	0.217431
3530.64	0.217385
3530.1	0.217354
3529.55	0.21731
3529.01	0.217287
3528.46	0.217296
3527.92	0.217243
3527.37	0.217331
3526.83	0.217363
3526.28	0.217329
3525.74	0.217277
3525.19	0.217242
3524.65	0.217225
3524.1	0.217167
3523.56	0.217114
3523.01	0.217049
3522.46	0.217038
3521.92	0.217008
3521.37	0.217036
3520.83	0.217055
3520.28	0.217038
3519.73	0.216998
3519.19	0.216965
3518.64	0.21689
3518.1	0.216843
3517.55	0.216802
3517	0.216809
3516.46	0.216783
3515.91	0.216754
3515.36	0.216743
3514.82	0.216719
3514.27	0.216697
3513.72	0.216647
3513.18	0.216614
3512.63	0.216564
3512.08	0.216506
3511.53	0.216506
3510.99	0.216501
3510.44	0.216547
3509.89	0.216562
3509.34	0.21658
3508.8	0.216623
3508.25	0.216597
3507.7	0.216547
3507.15	0.216509
3506.61	0.216423
3506.06	0.2164
3505.51	0.216294
3504.96	0.216246
3504.41	0.216266
3503.86	0.216261
3503.32	0.21623
3502.77	0.216226
3502.22	0.216195
3501.67	0.216164
3501.12	0.2161
3500.57	0.216074
3500.02	0.21605
3499.47	0.216022
3498.93	0.215979
3498.38	0.215987
3497.83	0.215926
3497.28	0.21591
3496.73	0.215853
3496.18	0.215832
3495.63	0.215805
3495.08	0.215784
3494.53	0.215798
3493.98	0.215815
3493.43	0.215752
3492.88	0.215713
3492.33	0.215659
3491.78	0.215598
3491.23	0.215567
3490.68	0.215563
3490.13	0.21559
3489.58	0.215594
3489.03	0.215515
3488.48	0.215556
3487.93	0.215571
3487.37	0.215504
3486.82	0.215474
3486.27	0.215445
3485.72	0.215398
3485.17	0.215366
3484.62	0.215328
3484.07	0.215379
3483.52	0.215321
3482.97	0.215277
3482.41	0.215207
3481.86	0.215152
3481.31	0.215144
3480.76	0.215142
3480.21	0.215123
3479.65	0.215094
3479.1	0.215081
3478.55	0.215075
3478	0.215024
3477.45	0.215018
3476.89	0.214995
3476.34	0.214947
3475.79	0.214916
3475.24	0.214889
3474.68	0.214937
3474.13	0.21493
3473.58	0.214862
3473.02	0.214849
3472.47	0.214781
3471.92	0.214742
3471.37	0.214661
3470.81	0.214616
3470.26	0.214655
3469.71	0.214607
3469.15	0.214555
3468.6	0.214553
3468.04	0.21458
3467.49	0.214588
3466.94	0.214541
3466.38	0.214527
3465.83	0.21455
3465.28	0.214471
3464.72	0.214403
3464.17	0.214367
3463.61	0.214402
3463.06	0.214394
3462.5	0.214376
3461.95	0.21439
3461.39	0.214412
3460.84	0.214347
3460.28	0.214278
3459.73	0.214173
3459.17	0.214135
3458.62	0.214082
3458.06	0.214031
3457.51	0.214002
3456.95	0.214017
3456.4	0.214022
3455.84	0.214005
3455.29	0.213917
3454.73	0.213907
3454.18	0.213883
3453.62	0.213863
3453.06	0.213843
3452.51	0.213863
3451.95	0.213844
3451.4	0.213775
3450.84	0.21376
3450.28	0.213726
3449.73	0.2137
3449.17	0.213689
3448.61	0.213691
3448.06	0.213681
3447.5	0.213657
3446.94	0.213619
3446.39	0.21359
3445.83	0.21352
3445.27	0.213423
3444.72	0.213419
3444.16	0.213405
3443.6	0.21343
3443.04	0.213428
3442.49	0.213419
3441.93	0.21338
3441.37	0.213385
3440.81	0.213314
3440.26	0.213376
3439.7	0.21334
3439.14	0.21333
3438.58	0.213209
3438.02	0.213162
3437.47	0.213116
3436.91	0.213137
3436.35	0.213085
3435.79	0.213094
3435.23	0.213066
3434.67	0.21302
3434.11	0.212948
3433.56	0.212923
3433	0.212937
3432.44	0.213018
3431.88	0.213001
3431.32	0.212998
3430.76	0.212983
3430.2	0.212917
3429.64	0.212845
3429.08	0.212814
3428.52	0.212815
3427.96	0.212856
3427.4	0.212816
3426.84	0.212764
3426.28	0.212692
3425.72	0.212607
3425.16	0.212506
3424.6	0.21249
3424.04	0.21245
3423.48	0.212465
3422.92	0.212481
3422.36	0.212483
3421.8	0.2125
3421.24	0.212477
3420.68	0.212478
3420.12	0.212501
3419.56	0.212474
3419	0.212469
3418.44	0.212437
3417.88	0.212383
3417.32	0.2123
3416.75	0.212225
3416.19	0.212201
3415.63	0.21219
3415.07	0.212157
3414.51	0.212155
3413.95	0.212078
3413.38	0.212038
3412.82	0.211999
3412.26	0.212041
3411.7	0.21205
3411.14	0.212058
3410.57	0.212037
3410.01	0.211993
3409.45	0.211859
3408.89	0.211787
3408.32	0.211808
3407.76	0.211875
3407.2	0.211893
3406.64	0.211887
3406.07	0.211876
3405.51	0.211801
3404.95	0.211716
3404.38	0.211662
3403.82	0.211648
3403.26	0.211635
3402.69	0.211658
3402.13	0.211616
3401.57	0.211634
3401	0.21158
3400.44	0.211531
3399.88	0.211467
3399.31	0.211368
3398.75	0.21131
3398.18	0.211353
3397.62	0.211301
3397.06	0.21136
3396.49	0.211286
3395.93	0.211208
3395.36	0.211162
3394.8	0.211078
3394.23	0.211063
3393.67	0.211081
3393.1	0.211145
3392.54	0.211243
3391.97	0.2112
3391.41	0.211178
3390.84	0.21112
3390.28	0.211035
3389.71	0.210956
3389.15	0.210878
3388.58	0.210925
3388.02	0.210982
3387.45	0.210963
3386.89	0.210997
3386.32	0.210988
3385.75	0.210892
3385.19	0.210826
3384.62	0.210764
3384.06	0.210759
3383.49	0.210775
3382.92	0.210786
3382.36	0.210823
3381.79	0.210747
3381.22	0.210648
3380.66	0.210622
3380.09	0.210587
3379.52	0.21054
3378.96	0.210518
3378.39	0.210507
3377.82	0.210532
3377.26	0.210464
3376.69	0.210477
3376.12	0.210485
3375.55	0.210476
3374.99	0.21041
3374.42	0.2104
3373.85	0.210359
3373.28	0.21033
3372.72	0.210313
3372.15	0.210319
3371.58	0.210307
3371.01	0.210298
3370.44	0.210246
3369.88	0.210252
3369.31	0.210233
3368.74	0.210179
3368.17	0.21016
3367.6	0.210109
3367.03	0.210048
3366.46	0.209992
3365.9	0.209956
3365.33	0.209965
3364.76	0.20992
3364.19	0.209893
3363.62	0.209875
3363.05	0.209866
3362.48	0.209856
3361.91	0.209876
3361.34	0.209898
3360.77	0.209932
3360.2	0.209847
3359.63	0.209832
3359.06	0.20976
3358.49	0.209696
3357.92	0.209632
3357.35	0.209579
3356.78	0.20954
3356.21	0.209553
3355.64	0.209545
3355.07	0.209554
3354.5	0.209514
3353.93	0.209492
3353.36	0.209451
3352.79	0.209369
3352.22	0.209354
3351.65	0.209332
3351.08	0.209287
3350.5	0.209286
3349.93	0.209282
3349.36	0.209266
3348.79	0.209265
3348.22	0.209229
3347.65	0.209192
3347.08	0.209132
3346.5	0.209013
3345.93	0.209025
3345.36	0.209007
3344.79	0.20898
3344.22	0.208955
3343.64	0.208939
3343.07	0.208982
3342.5	0.208965
3341.93	0.208911
3341.35	0.208897
3340.78	0.208895
3340.21	0.20885
3339.64	0.208777
3339.06	0.208763
3338.49	0.208796
3337.92	0.20875
3337.34	0.208739
3336.77	0.208717
3336.2	0.208719
3335.62	0.208648
3335.05	0.208616
3334.48	0.208586
3333.9	0.208622
3333.33	0.2086
3332.76	0.208593
3332.18	0.208629
3331.61	0.208614
3331.03	0.208523
3330.46	0.208527
3329.89	0.208506
3329.31	0.208575
3328.74	0.208522
3328.16	0.208493
3327.59	0.208497
3327.01	0.208413
3326.44	0.208327
3325.86	0.208286
3325.29	0.208275
3324.71	0.208219
3324.14	0.20813
3323.56	0.208088
3322.99	0.208054
3322.41	0.207998
3321.84	0.207981
3321.26	0.20797
3320.69	0.208003
3320.11	0.207953
3319.54	0.207911
3318.96	0.207939
3318.38	0.207906
3317.81	0.207894
3317.23	0.207873
3316.65	0.207837
3316.08	0.207847
3315.5	0.207811
3314.93	0.207762
3314.35	0.207732
3313.77	0.207685
3313.2	0.207702
3312.62	0.207683
3312.04	0.20764
3311.47	0.207632
3310.89	0.207604
3310.31	0.20754
3309.73	0.207472
3309.16	0.207476
3308.58	0.207517
3308	0.207523
3307.42	0.207523
3306.85	0.207507
3306.27	0.207458
3305.69	0.207357
3305.11	0.207262
3304.53	0.207197
3303.96	0.207206
3303.38	0.207246
3302.8	0.207265
3302.22	0.207213
3301.64	0.207146
3301.06	0.207129
3300.49	0.207145
3299.91	0.20709
3299.33	0.207111
3298.75	0.207154
3298.17	0.20713
3297.59	0.207032
3297.01	0.206929
3296.43	0.206895
3295.85	0.206875
3295.27	0.206848
3294.7	0.206847
3294.12	0.206903
3293.54	0.206917
3292.96	0.206837
3292.38	0.206787
3291.8	0.206769
3291.22	0.206736
3290.64	0.206738
3290.06	0.206705
3289.48	0.206697
3288.9	0.20668
3288.31	0.206651
3287.73	0.20666
3287.15	0.206646
3286.57	0.206546
3285.99	0.206449
3285.41	0.206426
3284.83	0.206343
3284.25	0.206341
3283.67	0.206361
3283.09	0.20638
3282.51	0.206389
3281.92	0.206328
3281.34	0.206279
3280.76	0.206294
3280.18	0.206205
3279.6	0.206175
3279.02	0.206162
3278.43	0.206131
3277.85	0.206128
3277.27	0.206107
3276.69	0.206081
3276.11	0.206087
3275.52	0.206046
3274.94	0.205996
3274.36	0.205978
3273.78	0.205901
3273.19	0.205876
3272.61	0.205887
3272.03	0.205907
3271.44	0.205903
3270.86	0.205894
3270.28	0.20581
3269.69	0.205796
3269.11	0.205724
3268.53	0.205703
3267.94	0.205724
3267.36	0.20565
3266.78	0.205652
3266.19	0.20568
3265.61	0.205584
3265.03	0.205597
3264.44	0.205579
3263.86	0.205614
3263.27	0.205596
3262.69	0.205498
3262.1	0.205525
3261.52	0.205494
3260.94	0.205375
3260.35	0.20536
3259.77	0.205337
3259.18	0.205348
3258.6	0.205319
3258.01	0.20526
3257.43	0.205272
3256.84	0.20522
3256.26	0.205184
3255.67	0.20514
3255.08	0.205082
3254.5	0.205039
3253.91	0.205049
3253.33	0.205045
3252.74	0.205091
3252.16	0.205018
3251.57	0.205063
3250.98	0.205058
3250.4	0.204993
3249.81	0.204949
3249.23	0.204997
3248.64	0.204958
3248.05	0.204963
3247.47	0.20486
3246.88	0.204836
3246.29	0.204761
3245.71	0.204727
3245.12	0.204708
3244.53	0.204733
3243.94	0.20474
3243.36	0.204734
3242.77	0.204687
3242.18	0.204584
3241.6	0.204511
3241.01	0.204517
3240.42	0.204477
3239.83	0.204452
3239.24	0.204384
3238.66	0.204313
3238.07	0.204303
3237.48	0.204254
3236.89	0.204269
3236.3	0.204315
3235.72	0.204275
3235.13	0.204247
3234.54	0.204147
3233.95	0.204138
3233.36	0.204089
3232.77	0.204032
3232.18	0.203977
3231.59	0.203974
3231.01	0.203945
3230.42	0.203927
3229.83	0.203875
3229.24	0.203865
3228.65	0.203859
3228.06	0.203912
3227.47	0.203887
3226.88	0.20396
3226.29	0.203952
3225.7	0.203899
3225.11	0.203837
3224.52	0.20376
3223.93	0.203654
3223.34	0.203631
3222.75	0.203565
3222.16	0.203543
3221.57	0.203536
3220.98	0.203596
3220.39	0.203628
3219.8	0.203586
3219.21	0.203562
3218.61	0.203566
3218.02	0.203477
3217.43	0.203401
3216.84	0.203456
3216.25	0.203412
3215.66	0.203362
3215.07	0.203314
3214.48	0.203283
3213.88	0.2032
3213.29	0.203109
3212.7	0.203127
3212.11	0.20315
3211.52	0.203133
3210.92	0.203129
3210.33	0.203141
3209.74	0.203069
3209.15	0.203058
3208.56	0.203078
3207.96	0.203134
3207.37	0.203121
3206.78	0.203124
3206.18	0.203032
3205.59	0.202983
3205	0.202875
3204.41	0.202807
3203.81	0.202721
3203.22	0.202715
3202.63	0.202689
3202.03	0.202684
3201.44	0.202653
3200.85	0.20267
3200.25	0.202696
3199.66	0.202729
3199.06	0.202732
3198.47	0.202701
3197.88	0.202649
3197.28	0.202518
3196.69	0.202445
3196.09	0.202467
3195.5	0.202497
3194.9	0.202536
3194.31	0.202536
3193.71	0.202467
3193.12	0.202406
3192.52	0.202304
3191.93	0.202267
3191.33	0.202253
3190.74	0.202234
3190.14	0.20219
3189.55	0.202213
3188.95	0.202182
3188.36	0.202187
3187.76	0.202214
3187.17	0.202172
3186.57	0.202146
3185.98	0.202098
3185.38	0.202045
3184.78	0.202065
3184.19	0.202008
3183.59	0.201943
3182.99	0.201929
3182.4	0.201838
3181.8	0.201849
3181.21	0.201799
3180.61	0.201825
3180.01	0.201825
3179.41	0.201837
3178.82	0.201749
3178.22	0.201786
3177.62	0.201781
3177.03	0.201773
3176.43	0.201667
3175.83	0.20163
3175.23	0.201559
3174.64	0.201592
3174.04	0.201535
3173.44	0.201572
3172.84	0.201562
3172.25	0.201514
3171.65	0.201449
3171.05	0.201423
3170.45	0.201407
3169.85	0.201404
3169.25	0.20135
3168.66	0.201339
3168.06	0.201307
3167.46	0.20135
3166.86	0.201384
3166.26	0.201424
3165.66	0.201436
3165.06	0.201448
3164.46	0.201383
3163.86	0.201385
3163.27	0.201381
3162.67	0.201417
3162.07	0.20143
3161.47	0.201411
3160.87	0.201417
3160.27	0.201477
3159.67	0.201492
3159.07	0.201576
3158.47	0.201548
3157.87	0.201539
3157.27	0.201509
3156.67	0.201403
3156.07	0.201404
3155.47	0.201328
3154.87	0.201363
3154.27	0.201371
3153.66	0.201329
3153.06	0.2014
3152.46	0.201454
3151.86	0.2015
3151.26	0.201532
3150.66	0.201485
3150.06	0.201478
3149.46	0.201402
3148.86	0.201296
3148.25	0.201261
3147.65	0.201224
3147.05	0.201202
3146.45	0.201177
3145.85	0.201163
3145.24	0.201165
3144.64	0.201124
3144.04	0.201017
3143.44	0.200997
3142.84	0.200933
3142.23	0.20091
3141.63	0.200887
3141.03	0.200866
3140.42	0.200879
3139.82	0.200873
3139.22	0.200836
3138.62	0.200817
3138.01	0.200774
3137.41	0.200745
3136.81	0.200682
3136.2	0.200589
3135.6	0.200495
3135	0.200464
3134.39	0.20045
3133.79	0.200479
3133.18	0.200458
3132.58	0.200435
3131.98	0.200437
3131.37	0.200351
3130.77	0.200253
3130.16	0.200176
3129.56	0.200083
3128.95	0.200059
3128.35	0.199974
3127.75	0.199949
3127.14	0.199894
3126.54	0.199876
3125.93	0.199886
3125.33	0.199857
3124.72	0.199831
3124.12	0.199848
3123.51	0.199828
3122.9	0.199805
3122.3	0.199737
3121.69	0.199767
3121.09	0.199763
3120.48	0.199751
3119.88	0.199669
3119.27	0.199607
3118.66	0.199566
3118.06	0.199555
3117.45	0.199494
3116.85	0.19948
3116.24	0.199494
3115.63	0.199499
3115.03	0.199419
3114.42	0.199416
3113.81	0.199427
3113.21	0.199385
3112.6	0.199394
3111.99	0.199325
3111.38	0.199375
3110.78	0.199301
3110.17	0.199259
3109.56	0.199288
3108.95	0.19935
3108.35	0.199436
3107.74	0.199549
3107.13	0.199589
3106.52	0.199589
3105.92	0.199464
3105.31	0.199328
3104.7	0.199208
3104.09	0.199188
3103.48	0.19921
3102.87	0.199245
3102.27	0.199296
3101.66	0.199281
3101.05	0.199352
3100.44	0.199342
3099.83	0.199459
3099.22	0.199597
3098.61	0.199678
3098	0.199695
3097.39	0.199685
3096.78	0.199646
3096.17	0.199718
3095.57	0.199604
3094.96	0.199716
3094.35	0.199699
3093.74	0.199607
3093.13	0.199492
3092.52	0.199453
3091.91	0.199345
3091.3	0.199305
3090.69	0.199183
3090.07	0.199291
3089.46	0.199318
3088.85	0.199368
3088.24	0.19934
3087.63	0.199413
3087.02	0.199474
3086.41	0.199437
3085.8	0.199432
3085.19	0.199458
3084.58	0.199357
3083.97	0.199296
3083.35	0.199144
3082.74	0.19921
3082.13	0.199295
3081.52	0.199358
3080.91	0.199471
3080.3	0.199545
3079.68	0.19949
3079.07	0.19951
3078.46	0.199506
3077.85	0.199582
3077.23	0.199671
3076.62	0.199664
3076.01	0.199661
3075.4	0.199668
3074.78	0.199726
3074.17	0.199837
3073.56	0.199949
3072.95	0.200178
3072.33	0.200441
3071.72	0.200521
3071.11	0.200637
3070.49	0.200706
3069.88	0.200895
3069.27	0.201035
3068.65	0.201164
3068.04	0.201346
3067.42	0.201549
3066.81	0.201767
3066.2	0.202049
3065.58	0.202224
3064.97	0.202546
3064.35	0.202961
3063.74	0.203452
3063.12	0.203975
3062.51	0.204698
3061.89	0.205298
3061.28	0.205845
3060.66	0.206249
3060.05	0.206756
3059.43	0.207588
3058.82	0.208458
3058.2	0.209324
3057.59	0.210246
3056.97	0.210932
3056.36	0.211377
3055.74	0.211815
3055.13	0.212086
3054.51	0.212251
3053.89	0.21204
3053.28	0.211644
3052.66	0.211317
3052.05	0.210963
3051.43	0.210419
3050.81	0.210085
3050.2	0.20969
3049.58	0.209297
3048.96	0.2086
3048.35	0.208116
3047.73	0.207721
3047.11	0.207036
3046.5	0.206342
3045.88	0.205828
3045.26	0.205323
3044.64	0.204976
3044.03	0.204536
3043.41	0.204337
3042.79	0.204103
3042.17	0.203772
3041.56	0.203563
3040.94	0.203431
3040.32	0.203126
3039.7	0.202822
3039.08	0.202468
3038.47	0.202003
3037.85	0.201631
3037.23	0.201189
3036.61	0.200713
3035.99	0.200476
3035.37	0.200114
3034.75	0.1997
3034.14	0.199347
3033.52	0.198971
3032.9	0.198572
3032.28	0.198156
3031.66	0.197926
3031.04	0.197833
3030.42	0.19767
3029.8	0.197574
3029.18	0.19757
3028.56	0.197494
3027.94	0.19732
3027.32	0.197225
3026.7	0.19715
3026.08	0.196941
3025.46	0.196786
3024.84	0.196779
3024.22	0.19673
3023.6	0.196666
3022.98	0.196584
3022.36	0.196579
3021.74	0.196472
3021.11	0.196365
3020.49	0.196346
3019.87	0.19642
3019.25	0.196429
3018.63	0.196415
3018.01	0.19634
3017.39	0.196386
3016.77	0.196298
3016.14	0.196243
3015.52	0.196198
3014.9	0.19623
3014.28	0.196168
3013.66	0.1961
3013.03	0.196027
3012.41	0.196092
3011.79	0.196138
3011.17	0.196078
3010.54	0.196007
3009.92	0.195945
3009.3	0.19579
3008.68	0.195712
3008.05	0.195614
3007.43	0.195598
3006.81	0.195657
3006.18	0.195562
3005.56	0.195623
3004.94	0.195589
3004.31	0.19547
3003.69	0.195384
3003.07	0.195259
3002.44	0.195209
3001.82	0.195111
3001.19	0.195157
3000.57	0.195276
2999.95	0.195294
2999.32	0.195259
2998.7	0.195187
2998.07	0.195141
2997.45	0.1951
2996.82	0.194924
2996.2	0.194919
2995.57	0.194854
2994.95	0.194896
2994.32	0.19491
2993.7	0.194823
2993.07	0.194877
2992.45	0.194917
2991.82	0.194862
2991.2	0.194845
2990.57	0.194812
2989.95	0.194773
2989.32	0.194718
2988.69	0.194669
2988.07	0.194664
2987.44	0.194618
2986.82	0.194537
2986.19	0.194615
2985.56	0.194637
2984.94	0.194566
2984.31	0.194501
2983.68	0.194466
2983.06	0.194414
2982.43	0.194348
2981.8	0.194302
2981.18	0.19438
2980.55	0.194406
2979.92	0.194412
2979.29	0.194292
2978.67	0.194159
2978.04	0.194152
2977.41	0.194204
2976.78	0.194208
2976.16	0.194166
2975.53	0.194167
2974.9	0.194248
2974.27	0.19422
2973.64	0.194166
2973.01	0.194159
2972.39	0.194136
2971.76	0.194087
2971.13	0.194012
2970.5	0.193958
2969.87	0.194045
2969.24	0.194075
2968.61	0.194034
2967.98	0.193951
2967.36	0.193784
2966.73	0.193711
2966.1	0.193682
2965.47	0.193709
2964.84	0.193796
2964.21	0.193899
2963.58	0.193869
2962.95	0.193903
2962.32	0.193803
2961.69	0.193747
2961.06	0.193781
2960.43	0.193843
2959.8	0.193807
2959.17	0.19396
2958.54	0.193932
2957.91	0.194062
2957.27	0.194023
2956.64	0.193974
2956.01	0.193964
2955.38	0.193915
2954.75	0.19378
2954.12	0.193747
2953.49	0.193613
2952.86	0.193635
2952.23	0.19357
2951.59	0.193645
2950.96	0.193685
2950.33	0.193712
2949.7	0.193783
2949.07	0.193817
2948.43	0.193807
2947.8	0.193825
2947.17	0.193833
2946.54	0.19392
2945.9	0.193883
2945.27	0.193905
2944.64	0.193946
2944.01	0.193936
2943.37	0.193839
2942.74	0.193732
2942.11	0.19361
2941.47	0.193637
2940.84	0.193604
2940.21	0.193723
2939.57	0.193716
2938.94	0.193658
2938.31	0.193555
2937.67	0.193428
2937.04	0.193248
2936.41	0.193181
2935.77	0.193151
2935.14	0.193181
2934.5	0.193175
2933.87	0.193117
2933.23	0.193088
2932.6	0.193049
2931.96	0.192982
2931.33	0.192983
2930.69	0.193058
2930.06	0.193031
2929.42	0.19302
2928.79	0.192981
2928.15	0.192888
2927.52	0.192874
2926.88	0.192852
2926.25	0.192844
2925.61	0.192707
2924.98	0.192569
2924.34	0.192577
2923.71	0.192604
2923.07	0.192637
2922.43	0.192759
2921.8	0.192867
2921.16	0.192794
2920.52	0.192604
2919.89	0.192464
2919.25	0.192478
2918.61	0.19248
2917.98	0.192434
2917.34	0.192401
2916.7	0.19242
2916.07	0.192406
2915.43	0.192413
2914.79	0.192356
2914.15	0.192391
2913.52	0.192377
2912.88	0.192247
2912.24	0.192144
2911.6	0.19208
2910.97	0.19212
2910.33	0.192129
2909.69	0.192101
2909.05	0.192041
2908.41	0.191967
2907.77	0.191931
2907.14	0.191992
2906.5	0.191999
2905.86	0.191994
2905.22	0.191886
2904.58	0.191855
2903.94	0.191763
2903.3	0.191703
2902.66	0.191669
2902.02	0.19174
2901.39	0.191724
2900.75	0.191704
2900.11	0.191733
2899.47	0.191807
2898.83	0.191821
2898.19	0.191867
2897.55	0.191854
2896.91	0.191784
2896.27	0.191784
2895.63	0.191813
2894.99	0.19189
2894.35	0.191895
2893.71	0.191869
2893.06	0.191956
2892.42	0.191907
2891.78	0.191769
2891.14	0.191798
2890.5	0.19181
2889.86	0.191691
2889.22	0.191546
2888.58	0.191471
2887.94	0.19146
2887.29	0.191386
2886.65	0.191389
2886.01	0.191486
2885.37	0.191526
2884.73	0.191453
2884.08	0.191382
2883.44	0.191389
2882.8	0.191203
2882.16	0.191068
2881.52	0.191105
2880.87	0.191098
2880.23	0.191111
2879.59	0.191201
2878.94	0.19122
2878.3	0.191239
2877.66	0.19109
2877.02	0.190988
2876.37	0.191025
2875.73	0.190973
2875.09	0.190945
2874.44	0.190923
2873.8	0.190937
2873.15	0.190962
2872.51	0.190931
2871.87	0.190975
2871.22	0.191087
2870.58	0.191157
2869.93	0.191117
2869.29	0.191102
2868.65	0.191015
2868	0.190946
2867.36	0.190865
2866.71	0.190836
2866.07	0.190858
2865.42	0.190942
2864.78	0.190965
2864.13	0.191174
2863.49	0.1913
2862.84	0.19144
2862.2	0.191345
2861.55	0.191073
2860.9	0.190906
2860.26	0.190703
2859.61	0.190499
2858.97	0.190524
2858.32	0.190767
2857.67	0.190916
2857.03	0.190869
2856.38	0.190768
2855.74	0.190832
2855.09	0.190793
2854.44	0.190735
2853.8	0.190661
2853.15	0.190789
2852.5	0.190716
2851.85	0.190588
2851.21	0.190486
2850.56	0.190523
2849.91	0.190541
2849.27	0.190595
2848.62	0.190505
2847.97	0.190599
2847.32	0.19053
2846.67	0.190553
2846.03	0.190618
2845.38	0.19073
2844.73	0.190762
2844.08	0.19073
2843.43	0.190624
2842.79	0.190628
2842.14	0.190603
2841.49	0.190503
2840.84	0.190462
2840.19	0.190489
2839.54	0.190359
2838.89	0.190254
2838.24	0.190193
2837.59	0.190224
2836.94	0.190273
2836.3	0.190287
2835.65	0.190315
2835	0.190396
2834.35	0.190191
2833.7	0.190171
2833.05	0.190091
2832.4	0.190099
2831.75	0.19002
2831.1	0.190084
2830.45	0.19
2829.8	0.189985
2829.14	0.189909
2828.49	0.189983
2827.84	0.189951
2827.19	0.189922
2826.54	0.189857
2825.89	0.189862
2825.24	0.189744
2824.59	0.189793
2823.94	0.189826
2823.28	0.189832
2822.63	0.189809
2821.98	0.189803
2821.33	0.189688
2820.68	0.18956
2820.03	0.189298
2819.37	0.189296
2818.72	0.18918
2818.07	0.189223
2817.42	0.189393
2816.76	0.189587
2816.11	0.189591
2815.46	0.189616
2814.81	0.189601
2814.15	0.189644
2813.5	0.189475
2812.85	0.189395
2812.19	0.189351
2811.54	0.189392
2810.89	0.189327
2810.23	0.189362
2809.58	0.189479
2808.93	0.189403
2808.27	0.18931
2807.62	0.189248
2806.96	0.189232
2806.31	0.189406
2805.66	0.189296
2805	0.189258
2804.35	0.189378
2803.69	0.189292
2803.04	0.189256
2802.38	0.189214
2801.73	0.18921
2801.07	0.189229
2800.42	0.189168
2799.76	0.189248
2799.11	0.189355
2798.45	0.189259
2797.8	0.189208
2797.14	0.189149
2796.49	0.189158
2795.83	0.189112
2795.17	0.189167
2794.52	0.189073
2793.86	0.189019
2793.21	0.188962
2792.55	0.188961
2791.89	0.188993
2791.24	0.189071
2790.58	0.189131
2789.92	0.189129
2789.27	0.189009
2788.61	0.18906
2787.95	0.189043
2787.3	0.188999
2786.64	0.189103
2785.98	0.189138
2785.32	0.18924
2784.67	0.189235
2784.01	0.189175
2783.35	0.189179
2782.69	0.189175
2782.04	0.189131
2781.38	0.189032
2780.72	0.188931
2780.06	0.188881
2779.4	0.188774
2778.74	0.188718
2778.09	0.188813
2777.43	0.188929
2776.77	0.188936
2776.11	0.1888
2775.45	0.188858
2774.79	0.188905
2774.13	0.18892
2773.47	0.189001
2772.81	0.188983
2772.15	0.188928
2771.49	0.188665
2770.84	0.18838
2770.18	0.188295
2769.52	0.188433
2768.86	0.188615
2768.2	0.188818
2767.54	0.188961
2766.87	0.188987
2766.21	0.188964
2765.55	0.188888
2764.89	0.188837
2764.23	0.188874
2763.57	0.188797
2762.91	0.188655
2762.25	0.188551
2761.59	0.188428
2760.93	0.188428
2760.27	0.188467
2759.6	0.188531
2758.94	0.188572
2758.28	0.188532
2757.62	0.188605
2756.96	0.188724
2756.3	0.188808
2755.63	0.188695
2754.97	0.188729
2754.31	0.188668
2753.65	0.188622
2752.98	0.188619
2752.32	0.188764
2751.66	0.18877
2751	0.188713
2750.33	0.188529
2749.67	0.188513
2749.01	0.188436
2748.34	0.188443
2747.68	0.1886
2747.02	0.188757
2746.35	0.188725
2745.69	0.18868
2745.03	0.188594
2744.36	0.188563
2743.7	0.188474
2743.04	0.188451
2742.37	0.188369
2741.71	0.188379
2741.04	0.188302
2740.38	0.188241
2739.71	0.188202
2739.05	0.188114
2738.38	0.188133
2737.72	0.188191
2737.05	0.188099
2736.39	0.188275
2735.72	0.188288
2735.06	0.188286
2734.39	0.188196
2733.73	0.188242
2733.06	0.188172
2732.4	0.188068
2731.73	0.187976
2731.07	0.1881
2730.4	0.188034
2729.73	0.188028
2729.07	0.187993
2728.4	0.188075
2727.73	0.187964
2727.07	0.187852
2726.4	0.187794
2725.73	0.187989
2725.07	0.188139
2724.4	0.188177
2723.73	0.188081
2723.07	0.18796
2722.4	0.187814
2721.73	0.18747
2721.06	0.187264
2720.4	0.187333
2719.73	0.187418
2719.06	0.18744
2718.39	0.187589
2717.73	0.187766
2717.06	0.187893
2716.39	0.187887
2715.72	0.187813
2715.05	0.18769
2714.38	0.187633
2713.72	0.187526
2713.05	0.187559
2712.38	0.18746
2711.71	0.187469
2711.04	0.187488
2710.37	0.187405
2709.7	0.187377
2709.03	0.187551
2708.36	0.187561
2707.69	0.18746
2707.02	0.187146
2706.35	0.187126
2705.68	0.187106
2705.01	0.187169
2704.34	0.187311
2703.67	0.187593
2703	0.187714
2702.33	0.187624
2701.66	0.187552
2700.99	0.187532
2700.32	0.187586
2699.65	0.187626
2698.98	0.187476
2698.31	0.187544
2697.64	0.187421
2696.97	0.187426
2696.29	0.187542
2695.62	0.187395
2694.95	0.187584
2694.28	0.187629
2693.61	0.187522
2692.94	0.187488
2692.26	0.187219
2691.59	0.187235
2690.92	0.18721
2690.25	0.187154
2689.58	0.187255
2688.9	0.187397
2688.23	0.18743
2687.56	0.187325
2686.88	0.187179
2686.21	0.187121
2685.54	0.187086
2684.87	0.1871
2684.19	0.187147
2683.52	0.187363
2682.85	0.187353
2682.17	0.187226
2681.5	0.187239
2680.82	0.18719
2680.15	0.187317
2679.48	0.187348
2678.8	0.187413
2678.13	0.187452
2677.45	0.187144
2676.78	0.18707
2676.1	0.18701
2675.43	0.186915
2674.76	0.186978
2674.08	0.186966
2673.41	0.187018
2672.73	0.187007
2672.06	0.186924
2671.38	0.187164
2670.7	0.187211
2670.03	0.187253
2669.35	0.187237
2668.68	0.187292
2668	0.18725
2667.33	0.18723
2666.65	0.187098
2665.97	0.18708
2665.3	0.187113
2664.62	0.187055
2663.95	0.186989
2663.27	0.187145
2662.59	0.187088
2661.92	0.187244
2661.24	0.187313
2660.56	0.187272
2659.88	0.187375
2659.21	0.18731
2658.53	0.187408
2657.85	0.187471
2657.17	0.18747
2656.5	0.187527
2655.82	0.187475
2655.14	0.187257
2654.46	0.187074
2653.79	0.187075
2653.11	0.187227
2652.43	0.187168
2651.75	0.187397
2651.07	0.187515
2650.39	0.187441
2649.72	0.187449
2649.04	0.187566
2648.36	0.187627
2647.68	0.187628
2647	0.187647
2646.32	0.187853
2645.64	0.187913
2644.96	0.187779
2644.28	0.187693
2643.6	0.18782
2642.92	0.187523
2642.24	0.187287
2641.56	0.187155
2640.88	0.187195
2640.2	0.187341
2639.52	0.187286
2638.84	0.187252
2638.16	0.187402
2637.48	0.187456
2636.8	0.187532
2636.12	0.187494
2635.44	0.187631
2634.76	0.187691
2634.08	0.187344
2633.39	0.187022
2632.71	0.187006
2632.03	0.187001
2631.35	0.187002
2630.67	0.187086
2629.99	0.187135
2629.3	0.187095
2628.62	0.187064
2627.94	0.18688
2627.26	0.186907
2626.58	0.186822
2625.89	0.186706
2625.21	0.186664
2624.53	0.18649
2623.85	0.186592
2623.16	0.186835
2622.48	0.186814
2621.8	0.18691
2621.11	0.186838
2620.43	0.186565
2619.75	0.186549
2619.06	0.186428
2618.38	0.186599
2617.7	0.186618
2617.01	0.186559
2616.33	0.186596
2615.64	0.186251
2614.96	0.185956
2614.28	0.18608
2613.59	0.186115
2612.91	0.186401
2612.22	0.186477
2611.54	0.186441
2610.85	0.18653
2610.17	0.186456
2609.48	0.186419
2608.8	0.18652
2608.11	0.186693
2607.43	0.186649
2606.74	0.186583
2606.06	0.186483
2605.37	0.186539
2604.68	0.186516
2604	0.186503
2603.31	0.186632
2602.63	0.186614
2601.94	0.186567
2601.25	0.186554
2600.57	0.186487
2599.88	0.18654
2599.19	0.186255
2598.51	0.186232
2597.82	0.186215
2597.13	0.186312
2596.45	0.186313
2595.76	0.18628
2595.07	0.186364
2594.38	0.186522
2593.7	0.186482
2593.01	0.186526
2592.32	0.186605
2591.63	0.186756
2590.95	0.186583
2590.26	0.186715
2589.57	0.186764
2588.88	0.186768
2588.19	0.186686
2587.5	0.186496
2586.82	0.186484
2586.13	0.186558
2585.44	0.186699
2584.75	0.186805
2584.06	0.186879
2583.37	0.18684
2582.68	0.186734
2581.99	0.18656
2581.3	0.186587
2580.61	0.186655
2579.92	0.186738
2579.23	0.186673
2578.54	0.186914
2577.85	0.18697
2577.16	0.187112
2576.47	0.187167
2575.78	0.18717
2575.09	0.186903
2574.4	0.18662
2573.71	0.186432
2573.02	0.186356
2572.33	0.186416
2571.64	0.186654
2570.95	0.18696
2570.26	0.187014
2569.56	0.187042
2568.87	0.187009
2568.18	0.186825
2567.49	0.186791
2566.8	0.186822
2566.11	0.186853
2565.41	0.186919
2564.72	0.186952
2564.03	0.18704
2563.34	0.186899
2562.64	0.186874
2561.95	0.186949
2561.26	0.186952
2560.57	0.18693
2559.87	0.186763
2559.18	0.186852
2558.49	0.186828
2557.79	0.186855
2557.1	0.187056
2556.41	0.187073
2555.71	0.187117
2555.02	0.187184
2554.33	0.187086
2553.63	0.187115
2552.94	0.187111
2552.24	0.187257
2551.55	0.187356
2550.86	0.18741
2550.16	0.187476
2549.47	0.187755
2548.77	0.187805
2548.08	0.187893
2547.38	0.18797
2546.69	0.188049
2545.99	0.188085
2545.3	0.188219
2544.6	0.188498
2543.91	0.188805
2543.21	0.188869
2542.51	0.188863
2541.82	0.18892
2541.12	0.188959
2540.43	0.189109
2539.73	0.189306
2539.03	0.189687
2538.34	0.190091
2537.64	0.190047
2536.95	0.189882
2536.25	0.190052
2535.55	0.190254
2534.86	0.190245
2534.16	0.190416
2533.46	0.190622
2532.76	0.190913
2532.07	0.19084
2531.37	0.190804
2530.67	0.190915
2529.97	0.190959
2529.28	0.190697
2528.58	0.190961
2527.88	0.19072
2527.18	0.191034
2526.48	0.191097
2525.79	0.191113
2525.09	0.191239
2524.39	0.191313
2523.69	0.19136
2522.99	0.191472
2522.29	0.19126
2521.59	0.191432
2520.89	0.19116
2520.19	0.190935
2519.5	0.190922
2518.8	0.190858
2518.1	0.190891
2517.4	0.190737
2516.7	0.190854
2516	0.190966
2515.3	0.190932
2514.6	0.190823
2513.9	0.190838
2513.2	0.190799
2512.5	0.190886
2511.8	0.190673
2511.09	0.190331
2510.39	0.190213
2509.69	0.190027
2508.99	0.189898
2508.29	0.189881
2507.59	0.189967
2506.89	0.190034
2506.19	0.189784
2505.49	0.189256
2504.78	0.189214
2504.08	0.189073
2503.38	0.189042
2502.68	0.188954
2501.98	0.188993
2501.27	0.188837
2500.57	0.188559
2499.87	0.188263
2499.17	0.188073
2498.46	0.187985
2497.76	0.188011
2497.06	0.18798
2496.35	0.187994
2495.65	0.18795
2494.95	0.187801
2494.25	0.18758
2493.54	0.187238
2492.84	0.18703
2492.13	0.187138
2491.43	0.187039
2490.73	0.187028
2490.02	0.187152
2489.32	0.187335
2488.61	0.187495
2487.91	0.187375
2487.21	0.18732
2486.5	0.187297
2485.8	0.187059
2485.09	0.186978
2484.39	0.186924
2483.68	0.186928
2482.98	0.186987
2482.27	0.187027
2481.57	0.186934
2480.86	0.186712
2480.15	0.186488
2479.45	0.186172
2478.74	0.186096
2478.04	0.186073
2477.33	0.186351
2476.62	0.186483
2475.92	0.186457
2475.21	0.186532
2474.51	0.186227
2473.8	0.185918
2473.09	0.18589
2472.39	0.185869
2471.68	0.186103
2470.97	0.186144
2470.26	0.186241
2469.56	0.186338
2468.85	0.186126
2468.14	0.186144
2467.43	0.186004
2466.73	0.18599
2466.02	0.185997
2465.31	0.186022
2464.6	0.186044
2463.89	0.186178
2463.19	0.186205
2462.48	0.186339
2461.77	0.186371
2461.06	0.186147
2460.35	0.185895
2459.64	0.185792
2458.93	0.185751
2458.22	0.1859
2457.52	0.185959
2456.81	0.186181
2456.1	0.186127
2455.39	0.185781
2454.68	0.185689
2453.97	0.185633
2453.26	0.185612
2452.55	0.185629
2451.84	0.18581
2451.13	0.186008
2450.42	0.185765
2449.71	0.185677
2449	0.18574
2448.28	0.185674
2447.57	0.185669
2446.86	0.185555
2446.15	0.185774
2445.44	0.185891
2444.73	0.185753
2444.02	0.185836
2443.31	0.185866
2442.59	0.185965
2441.88	0.185948
2441.17	0.185812
2440.46	0.185915
2439.75	0.185792
2439.04	0.185673
2438.32	0.185742
2437.61	0.185627
2436.9	0.185581
2436.19	0.185786
2435.47	0.185815
2434.76	0.185931
2434.05	0.185849
2433.33	0.185924
2432.62	0.185923
2431.91	0.185751
2431.19	0.185779
2430.48	0.186069
2429.77	0.185988
2429.05	0.186206
2428.34	0.186119
2427.62	0.185985
2426.91	0.185783
2426.2	0.185768
2425.48	0.185733
2424.77	0.185604
2424.05	0.185586
2423.34	0.185772
2422.62	0.185751
2421.91	0.18594
2421.19	0.186149
2420.48	0.186367
2419.76	0.186286
2419.05	0.186145
2418.33	0.185912
2417.62	0.185637
2416.9	0.185651
2416.18	0.185637
2415.47	0.185734
2414.75	0.18569
2414.04	0.185701
2413.32	0.185668
2412.6	0.185686
2411.89	0.185694
2411.17	0.185915
2410.45	0.185803
2409.74	0.185902
2409.02	0.185707
2408.3	0.185745
2407.58	0.185748
2406.87	0.18578
2406.15	0.185742
2405.43	0.185658
2404.71	0.185606
2404	0.185761
2403.28	0.185921
2402.56	0.186104
2401.84	0.186215
2401.12	0.18617
2400.41	0.186132
2399.69	0.185914
2398.97	0.185978
2398.25	0.185998
2397.53	0.186072
2396.81	0.186065
2396.09	0.186133
2395.37	0.18607
2394.65	0.186244
2393.94	0.186316
2393.22	0.186293
2392.5	0.186284
2391.78	0.186181
2391.06	0.186071
2390.34	0.186109
2389.62	0.185894
2388.9	0.186008
2388.18	0.18597
2387.46	0.186056
2386.73	0.186301
2386.01	0.186458
2385.29	0.186557
2384.57	0.186662
2383.85	0.186603
2383.13	0.18655
2382.41	0.186295
2381.69	0.186418
2380.97	0.186398
2380.24	0.186481
2379.52	0.186397
2378.8	0.186373
2378.08	0.186302
2377.36	0.186263
2376.63	0.186271
2375.91	0.186344
2375.19	0.186488
2374.47	0.186728
2373.74	0.18691
2373.02	0.187053
2372.3	0.187018
2371.58	0.187112
2370.85	0.186952
2370.13	0.186822
2369.41	0.187006
2368.68	0.18705
2367.96	0.187067
2367.23	0.186963
2366.51	0.186705
2365.79	0.186658
2365.06	0.186374
2364.34	0.186443
2363.61	0.186654
2362.89	0.186647
2362.16	0.186718
2361.44	0.186661
2360.72	0.186538
2359.99	0.186491
2359.27	0.186357
2358.54	0.186345
2357.81	0.186308
2357.09	0.186414
2356.36	0.186588
2355.64	0.186752
2354.91	0.186931
2354.19	0.186654
2353.46	0.186643
2352.73	0.186443
2352.01	0.186247
2351.28	0.186302
2350.56	0.186336
2349.83	0.186596
2349.1	0.186689
2348.38	0.186383
2347.65	0.18638
2346.92	0.186236
2346.19	0.186199
2345.47	0.18639
2344.74	0.186589
2344.01	0.186987
2343.29	0.186982
2342.56	0.186764
2341.83	0.186711
2341.1	0.186667
2340.37	0.186548
2339.65	0.18667
2338.92	0.186923
2338.19	0.187056
2337.46	0.186919
2336.73	0.186756
2336	0.186803
2335.27	0.186801
2334.54	0.186602
2333.82	0.186834
2333.09	0.187064
2332.36	0.187123
2331.63	0.18717
2330.9	0.18712
2330.17	0.187144
2329.44	0.187193
2328.71	0.187174
2327.98	0.187268
2327.25	0.187401
2326.52	0.18747
2325.79	0.187634
2325.06	0.187736
2324.33	0.187968
2323.59	0.188157
2322.86	0.18837
2322.13	0.188431
2321.4	0.188646
2320.67	0.188776
2319.94	0.188986
2319.21	0.189209
2318.48	0.189329
2317.74	0.189198
2317.01	0.189181
2316.28	0.188958
2315.55	0.188841
2314.82	0.189012
2314.08	0.188981
2313.35	0.189225
2312.62	0.189311
2311.89	0.189147
2311.15	0.188982
2310.42	0.188561
2309.69	0.188141
2308.95	0.187846
2308.22	0.18749
2307.49	0.187483
2306.75	0.187739
2306.02	0.187903
2305.29	0.188015
2304.55	0.187919
2303.82	0.18776
2303.08	0.187745
2302.35	0.187545
2301.62	0.187252
2300.88	0.187236
2300.15	0.187155
2299.41	0.1869
2298.68	0.186656
2297.94	0.186582
2297.21	0.186689
2296.47	0.186744
2295.74	0.18663
2295	0.186829
2294.27	0.187096
2293.53	0.187382
2292.79	0.187444
2292.06	0.18743
2291.32	0.187271
2290.59	0.187215
2289.85	0.187003
2289.11	0.186895
2288.38	0.186981
2287.64	0.187047
2286.9	0.186956
2286.17	0.187015
2285.43	0.187111
2284.69	0.186905
2283.96	0.186774
2283.22	0.186735
2282.48	0.186923
2281.74	0.186793
2281.01	0.186839
2280.27	0.18702
2279.53	0.187163
2278.79	0.187005
2278.05	0.187047
2277.32	0.187322
2276.58	0.187431
2275.84	0.18718
2275.1	0.187199
2274.36	0.187099
2273.62	0.187015
2272.88	0.186976
2272.14	0.187171
2271.4	0.187318
2270.67	0.187316
2269.93	0.187231
2269.19	0.187228
2268.45	0.186901
2267.71	0.186935
2266.97	0.186923
2266.23	0.187106
2265.49	0.186999
2264.75	0.187215
2264.01	0.18742
2263.26	0.187357
2262.52	0.187265
2261.78	0.187433
2261.04	0.18725
2260.3	0.187127
2259.56	0.186926
2258.82	0.186924
2258.08	0.186967
2257.34	0.187012
2256.59	0.187339
2255.85	0.187537
2255.11	0.187779
2254.37	0.187767
2253.63	0.187959
2252.88	0.187998
2252.14	0.188032
2251.4	0.188033
2250.66	0.18796
2249.91	0.187612
2249.17	0.187582
2248.43	0.187092
2247.68	0.187055
2246.94	0.186984
2246.2	0.187095
2245.45	0.187342
2244.71	0.18765
2243.97	0.187717
2243.22	0.187869
2242.48	0.18785
2241.74	0.188061
2240.99	0.187944
2240.25	0.187925
2239.5	0.188028
2238.76	0.188181
2238.01	0.188061
2237.27	0.187798
2236.52	0.187881
2235.78	0.187975
2235.03	0.187737
2234.29	0.187721
2233.54	0.187815
2232.8	0.187771
2232.05	0.187648
2231.31	0.187531
2230.56	0.187611
2229.81	0.187674
2229.07	0.187829
2228.32	0.18817
2227.57	0.188402
2226.83	0.188394
2226.08	0.188396
2225.33	0.188281
2224.59	0.188169
2223.84	0.188058
2223.09	0.188122
2222.35	0.188268
2221.6	0.188554
2220.85	0.188806
2220.1	0.188991
2219.36	0.189011
2218.61	0.18895
2217.86	0.188928
2217.11	0.188904
2216.36	0.189169
2215.62	0.189294
2214.87	0.189207
2214.12	0.189121
2213.37	0.189089
2212.62	0.189233
2211.87	0.189545
2211.12	0.189677
2210.37	0.189868
2209.62	0.189872
2208.87	0.189698
2208.13	0.189415
2207.38	0.189274
2206.63	0.189616
2205.88	0.189543
2205.13	0.189694
2204.38	0.189644
2203.63	0.189704
2202.87	0.18954
2202.12	0.189542
2201.37	0.189505
2200.62	0.189711
2199.87	0.189543
2199.12	0.189932
2198.37	0.189879
2197.62	0.189614
2196.87	0.189678
2196.12	0.189873
2195.36	0.189971
2194.61	0.189995
2193.86	0.190048
2193.11	0.190115
2192.36	0.190187
2191.6	0.189903
2190.85	0.189983
2190.1	0.190056
2189.35	0.190305
2188.59	0.190353
2187.84	0.190359
2187.09	0.190386
2186.33	0.190653
2185.58	0.190301
2184.83	0.190191
2184.07	0.190325
2183.32	0.190419
2182.57	0.190314
2181.81	0.190103
2181.06	0.189981
2180.3	0.189684
2179.55	0.189555
2178.8	0.189935
2178.04	0.190211
2177.29	0.190425
2176.53	0.190358
2175.78	0.190153
2175.02	0.189997
2174.27	0.189782
2173.51	0.189705
2172.76	0.189849
2172	0.189738
2171.25	0.189737
2170.49	0.189748
2169.73	0.189651
2168.98	0.189975
2168.22	0.190318
2167.47	0.190266
2166.71	0.190338
2165.95	0.190449
2165.2	0.190306
2164.44	0.190228
2163.68	0.190131
2162.93	0.190383
2162.17	0.190512
2161.41	0.190416
2160.65	0.190346
2159.9	0.190536
2159.14	0.190352
2158.38	0.190591
2157.62	0.190779
2156.87	0.191012
2156.11	0.190936
2155.35	0.190931
2154.59	0.190836
2153.83	0.190919
2153.07	0.190807
2152.32	0.191124
2151.56	0.191178
2150.8	0.191237
2150.04	0.191281
2149.28	0.191373
2148.52	0.191581
2147.76	0.191587
2147	0.191481
2146.24	0.191527
2145.48	0.191294
2144.72	0.190989
2143.96	0.190822
2143.2	0.190768
2142.44	0.1908
2141.68	0.190706
2140.92	0.190834
2140.16	0.190842
2139.4	0.190799
2138.64	0.190831
2137.88	0.190836
2137.11	0.190839
2136.35	0.190736
2135.59	0.190583
2134.83	0.190574
2134.07	0.190066
2133.31	0.18977
2132.54	0.189796
2131.78	0.189915
2131.02	0.19027
2130.26	0.190582
2129.5	0.190878
2128.73	0.191144
2127.97	0.190992
2127.21	0.190756
2126.44	0.19094
2125.68	0.190785
2124.92	0.190825
2124.16	0.190695
2123.39	0.190869
2122.63	0.191181
2121.86	0.191263
2121.1	0.191298
2120.34	0.191355
2119.57	0.191117
2118.81	0.191133
2118.04	0.191075
2117.28	0.191266
2116.51	0.191424
2115.75	0.191388
2114.99	0.191381
2114.22	0.191273
2113.46	0.191232
2112.69	0.191403
2111.92	0.191422
2111.16	0.191281
2110.39	0.191114
2109.63	0.191227
2108.86	0.191295
2108.1	0.19118
2107.33	0.191439
2106.56	0.191561
2105.8	0.191759
2105.03	0.191664
2104.26	0.191728
2103.5	0.191811
2102.73	0.191685
2101.96	0.191314
2101.2	0.191333
2100.43	0.191215
2099.66	0.191448
2098.89	0.191507
2098.13	0.191713
2097.36	0.191681
2096.59	0.191546
2095.82	0.191359
2095.06	0.191256
2094.29	0.191365
2093.52	0.191504
2092.75	0.191497
2091.98	0.191673
2091.21	0.191613
2090.44	0.191556
2089.67	0.191245
2088.91	0.190966
2088.14	0.19087
2087.37	0.190692
2086.6	0.190667
2085.83	0.190894
2085.06	0.191257
2084.29	0.191419
2083.52	0.191235
2082.75	0.191262
2081.98	0.191076
2081.21	0.190881
2080.44	0.190859
2079.67	0.190968
2078.9	0.191149
2078.12	0.191406
2077.35	0.191421
2076.58	0.191609
2075.81	0.1916
2075.04	0.191568
2074.27	0.191456
2073.5	0.191567
2072.72	0.191513
2071.95	0.191753
2071.18	0.191514
2070.41	0.191602
2069.64	0.191611
2068.86	0.191523
2068.09	0.191489
2067.32	0.191358
2066.55	0.191355
2065.77	0.191311
2065	0.191228
2064.23	0.191325
2063.45	0.191511
2062.68	0.191567
2061.91	0.191704
2061.13	0.191586
2060.36	0.191717
2059.58	0.191846
2058.81	0.192024
2058.04	0.191935
2057.26	0.191978
2056.49	0.191624
2055.71	0.191446
2054.94	0.191244
2054.16	0.191426
2053.39	0.191643
2052.61	0.191955
2051.84	0.192082
2051.06	0.192274
2050.29	0.19235
2049.51	0.192127
2048.73	0.192099
2047.96	0.19216
2047.18	0.192153
2046.41	0.192353
2045.63	0.192334
2044.85	0.192544
2044.08	0.192804
2043.3	0.192888
2042.52	0.192933
2041.75	0.192815
2040.97	0.192658
2040.19	0.192672
2039.42	0.192522
2038.64	0.192754
2037.86	0.192823
2037.08	0.192963
2036.31	0.192824
2035.53	0.192711
2034.75	0.192388
2033.97	0.192485
2033.19	0.192549
2032.41	0.19302
2031.64	0.193161
2030.86	0.193315
2030.08	0.193476
2029.3	0.193477
2028.52	0.193231
2027.74	0.193053
2026.96	0.192929
2026.18	0.192998
2025.4	0.192837
2024.62	0.192749
2023.84	0.19259
2023.06	0.192449
2022.28	0.192559
2021.5	0.192705
2020.72	0.192976
2019.94	0.193143
2019.16	0.19298
2018.38	0.192905
2017.6	0.193027
2016.82	0.193266
2016.04	0.193582
2015.25	0.193909
2014.47	0.193912
2013.69	0.193621
2012.91	0.193099
2012.13	0.192907
2011.35	0.192969
2010.56	0.193045
2009.78	0.193405
2009	0.193841
2008.22	0.194067
2007.43	0.1942
2006.65	0.194383
2005.87	0.194595
2005.09	0.194618
2004.3	0.194573
2003.52	0.194339
2002.74	0.194091
2001.95	0.193996
2001.17	0.193953
2000.39	0.194004
1999.6	0.194166
1998.82	0.19438
1998.03	0.194534
1997.25	0.194639
1996.46	0.194762
1995.68	0.194802
1994.9	0.194648
1994.11	0.194458
1993.33	0.194151
1992.54	0.194215
1991.75	0.194159
1990.97	0.194382
1990.18	0.194411
1989.4	0.194367
1988.61	0.194616
1987.83	0.194765
1987.04	0.194879
1986.25	0.195175
1985.47	0.194992
1984.68	0.195048
1983.9	0.194737
1983.11	0.194716
1982.32	0.19489
1981.54	0.194984
1980.75	0.195263
1979.96	0.195385
1979.17	0.195342
1978.39	0.195314
1977.6	0.195231
1976.81	0.195461
1976.02	0.195507
1975.24	0.195592
1974.45	0.195525
1973.66	0.195626
1972.87	0.195591
1972.08	0.195631
1971.29	0.195758
1970.5	0.195915
1969.72	0.195957
1968.93	0.195913
1968.14	0.195918
1967.35	0.195841
1966.56	0.195673
1965.77	0.195603
1964.98	0.195541
1964.19	0.195697
1963.4	0.195873
1962.61	0.196045
1961.82	0.196259
1961.03	0.196408
1960.24	0.196406
1959.45	0.196179
1958.66	0.196119
1957.87	0.1962
1957.08	0.196051
1956.28	0.196142
1955.49	0.196443
1954.7	0.19666
1953.91	0.196852
1953.12	0.196872
1952.33	0.19666
1951.54	0.196491
1950.74	0.196471
1949.95	0.196404
1949.16	0.196571
1948.37	0.196299
1947.57	0.196588
1946.78	0.196747
1945.99	0.196546
1945.2	0.196564
1944.4	0.196783
1943.61	0.196658
1942.82	0.196766
1942.02	0.196643
1941.23	0.196681
1940.43	0.196633
1939.64	0.196588
1938.85	0.196641
1938.05	0.196604
1937.26	0.196851
1936.46	0.197061
1935.67	0.197222
1934.87	0.197174
1934.08	0.197005
1933.28	0.197328
1932.49	0.197691
1931.69	0.197737
1930.9	0.198193
1930.1	0.198652
1929.31	0.198682
1928.51	0.198575
1927.72	0.198309
1926.92	0.198406
1926.12	0.198306
1925.33	0.1982
1924.53	0.198345
1923.73	0.198422
1922.94	0.198268
1922.14	0.198362
1921.34	0.198413
1920.55	0.198505
1919.75	0.198553
1918.95	0.198717
1918.16	0.198663
1917.36	0.198576
1916.56	0.19838
1915.76	0.198244
1914.96	0.198347
1914.17	0.198378
1913.37	0.198545
1912.57	0.198739
1911.77	0.19897
1910.97	0.198822
1910.17	0.199039
1909.37	0.199108
1908.58	0.199048
1907.78	0.199149
1906.98	0.199178
1906.18	0.199189
1905.38	0.199309
1904.58	0.199205
1903.78	0.199522
1902.98	0.199538
1902.18	0.199319
1901.38	0.199439
1900.58	0.199202
1899.78	0.199001
1898.98	0.199296
1898.17	0.199575
1897.37	0.199757
1896.57	0.199998
1895.77	0.19984
1894.97	0.199776
1894.17	0.199547
1893.37	0.199825
1892.57	0.200408
1891.76	0.200463
1890.96	0.200613
1890.16	0.200552
1889.36	0.200258
1888.55	0.199919
1887.75	0.199718
1886.95	0.200168
1886.15	0.200519
1885.34	0.200541
1884.54	0.200914
1883.74	0.201255
1882.93	0.201529
1882.13	0.201426
1881.33	0.201222
1880.52	0.201154
1879.72	0.200923
1878.91	0.200884
1878.11	0.200865
1877.31	0.200709
1876.5	0.200854
1875.7	0.200824
1874.89	0.200694
1874.09	0.200733
1873.28	0.200615
1872.48	0.200755
1871.67	0.200883
1870.87	0.200952
1870.06	0.201169
1869.26	0.201167
1868.45	0.2013
1867.64	0.201384
1866.84	0.201561
1866.03	0.201571
1865.23	0.201788
1864.42	0.202176
1863.61	0.202104
1862.81	0.201786
1862	0.201796
1861.19	0.201553
1860.38	0.201817
1859.58	0.201677
1858.77	0.202114
1857.96	0.202373
1857.15	0.202428
1856.35	0.202519
1855.54	0.202954
1854.73	0.203074
1853.92	0.203346
1853.11	0.203209
1852.31	0.203184
1851.5	0.202881
1850.69	0.202767
1849.88	0.20301
1849.07	0.20342
1848.26	0.203676
1847.45	0.203777
1846.64	0.20395
1845.83	0.203782
1845.02	0.203844
1844.21	0.203571
1843.4	0.203541
1842.59	0.203676
1841.78	0.203592
1840.97	0.20344
1840.16	0.203422
1839.35	0.203098
1838.54	0.203342
1837.73	0.20331
1836.92	0.203658
1836.11	0.204464
1835.3	0.205209
1834.48	0.205765
1833.67	0.20599
1832.86	0.206201
1832.05	0.206734
1831.24	0.206787
1830.42	0.206994
1829.61	0.207411
1828.8	0.207945
1827.99	0.208238
1827.17	0.208172
1826.36	0.2085
1825.55	0.208956
1824.73	0.209432
1823.92	0.209668
1823.11	0.210044
1822.29	0.210727
1821.48	0.21126
1820.67	0.211402
1819.85	0.211924
1819.04	0.212324
1818.22	0.212524
1817.41	0.212407
1816.6	0.212687
1815.78	0.212551
1814.97	0.212371
1814.15	0.211607
1813.34	0.21083
1812.52	0.210032
1811.71	0.209086
1810.89	0.208988
1810.07	0.208994
1809.26	0.20896
1808.44	0.209091
1807.63	0.208926
1806.81	0.208271
1805.99	0.207727
1805.18	0.20721
1804.36	0.207223
1803.54	0.206912
1802.73	0.206779
1801.91	0.206355
1801.09	0.206042
1800.28	0.205431
1799.46	0.204928
1798.64	0.205174
1797.82	0.205745
1797.01	0.205858
1796.19	0.205914
1795.37	0.206176
1794.55	0.206213
1793.73	0.206044
1792.92	0.205821
1792.1	0.205792
1791.28	0.20546
1790.46	0.204456
1789.64	0.20428
1788.82	0.204263
1788	0.204275
1787.18	0.204486
1786.36	0.204863
1785.54	0.204894
1784.72	0.205178
1783.9	0.205012
1783.08	0.205492
1782.26	0.205398
1781.44	0.20547
1780.62	0.205297
1779.8	0.205434
1778.98	0.205079
1778.16	0.205503
1777.34	0.205814
1776.52	0.206121
1775.69	0.205948
1774.87	0.205584
1774.05	0.20537
1773.23	0.205205
1772.41	0.204779
1771.59	0.20479
1770.76	0.2051
1769.94	0.205464
1769.12	0.205689
1768.3	0.205482
1767.47	0.205733
1766.65	0.205523
1765.83	0.205764
1765	0.205869
1764.18	0.206102
1763.36	0.206657
1762.53	0.206595
1761.71	0.206447
1760.88	0.206511
1760.06	0.206205
1759.24	0.2061
1758.41	0.206097
1757.59	0.205827
1756.76	0.205883
1755.94	0.205761
1755.11	0.206039
1754.29	0.206448
1753.46	0.2066
1752.64	0.206274
1751.81	0.206326
1750.99	0.206298
1750.16	0.206342
1749.34	0.206297
1748.51	0.206156
1747.68	0.206377
1746.86	0.206568
1746.03	0.206488
1745.2	0.206586
1744.38	0.206748
1743.55	0.206794
1742.72	0.206807
1741.9	0.206428
1741.07	0.206248
1740.24	0.20623
1739.41	0.206053
1738.59	0.206038
1737.76	0.206418
1736.93	0.206907
1736.1	0.20762
1735.27	0.207519
1734.45	0.207422
1733.62	0.20723
1732.79	0.206894
1731.96	0.206834
1731.13	0.206863
1730.3	0.206779
1729.47	0.207206
1728.64	0.207057
1727.81	0.206979
1726.98	0.206915
1726.15	0.2069
1725.32	0.207197
1724.49	0.207282
1723.66	0.207243
1722.83	0.207253
1722	0.207144
1721.17	0.206625
1720.34	0.206747
1719.51	0.20698
1718.68	0.207535
1717.85	0.207706
1717.02	0.207918
1716.19	0.207908
1715.35	0.207907
1714.52	0.207505
1713.69	0.207871
1712.86	0.207795
1712.03	0.207715
1711.19	0.207849
1710.36	0.208114
1709.53	0.208466
1708.7	0.20857
1707.86	0.208591
1707.03	0.208736
1706.2	0.208379
1705.36	0.20824
1704.53	0.208266
1703.7	0.208596
1702.86	0.208916
1702.03	0.20921
1701.19	0.209391
1700.36	0.209211
1699.53	0.209137
1698.69	0.209228
1697.86	0.209108
1697.02	0.209088
1696.19	0.208857
1695.35	0.208841
1694.52	0.209032
1693.68	0.209112
1692.85	0.20935
1692.01	0.209941
1691.17	0.210404
1690.34	0.210252
1689.5	0.210228
1688.67	0.210149
1687.83	0.210598
1686.99	0.210847
1686.16	0.210872
1685.32	0.211454
1684.48	0.211725
1683.65	0.211802
1682.81	0.212076
1681.97	0.212655
1681.13	0.212877
1680.3	0.212814
1679.46	0.212872
1678.62	0.212959
1677.78	0.213025
1676.94	0.213067
1676.11	0.213653
1675.27	0.2149
1674.43	0.215174
1673.59	0.215829
1672.75	0.21643
1671.91	0.217179
1671.07	0.217974
1670.23	0.21803
1669.39	0.218833
1668.56	0.219427
1667.72	0.219488
1666.88	0.21995
1666.04	0.2205
1665.2	0.221251
1664.36	0.221867
1663.51	0.221754
1662.67	0.222522
1661.83	0.222903
1660.99	0.223225
1660.15	0.223577
1659.31	0.223827
1658.47	0.224112
1657.63	0.224412
1656.79	0.2243
1655.94	0.224894
1655.1	0.225054
1654.26	0.225276
1653.42	0.225299
1652.58	0.225072
1651.73	0.225231
1650.89	0.22521
1650.05	0.225377
1649.21	0.225513
1648.36	0.225393
1647.52	0.22555
1646.68	0.225567
1645.83	0.225729
1644.99	0.22575
1644.14	0.225658
1643.3	0.225398
1642.46	0.225183
1641.61	0.224816
1640.77	0.224717
1639.92	0.224451
1639.08	0.224496
1638.23	0.224514
1637.39	0.224454
1636.54	0.224066
1635.7	0.223951
1634.85	0.223649
1634.01	0.223443
1633.16	0.222922
1632.32	0.222998
1631.47	0.223266
1630.62	0.223816
1629.78	0.224622
1628.93	0.225126
1628.09	0.225309
1627.24	0.225157
1626.39	0.224966
1625.55	0.225138
1624.7	0.225137
1623.85	0.225403
1623	0.225791
1622.16	0.22601
1621.31	0.226091
1620.46	0.226208
1619.61	0.226442
1618.76	0.226527
1617.92	0.226749
1617.07	0.226792
1616.22	0.227293
1615.37	0.227867
1614.52	0.228142
1613.67	0.228648
1612.82	0.229318
1611.97	0.229744
1611.13	0.230396
1610.28	0.230971
1609.43	0.231954
1608.58	0.23249
1607.73	0.232802
1606.88	0.233508
1606.03	0.234457
1605.18	0.235419
1604.32	0.236919
1603.47	0.238897
1602.62	0.240659
1601.77	0.242719
1600.92	0.245047
1600.07	0.247139
1599.22	0.249347
1598.37	0.252263
1597.51	0.255388
1596.66	0.258997
1595.81	0.262566
1594.96	0.266936
1594.11	0.271627
1593.25	0.276793
1592.4	0.282508
1591.55	0.289617
1590.7	0.297199
1589.84	0.306718
1588.99	0.318024
1588.14	0.331712
1587.28	0.348801
1586.43	0.369863
1585.58	0.396167
1584.72	0.430228
1583.87	0.472209
1583.01	0.523261
1582.16	0.582212
1581.3	0.6461
1580.45	0.712268
1579.59	0.774825
1578.74	0.829822
1577.88	0.873317
1577.03	0.901813
1576.17	0.916749
1575.32	0.917648
1574.46	0.905063
1573.61	0.882402
1572.75	0.850542
1571.89	0.8124
1571.04	0.767943
1570.18	0.718354
1569.33	0.668241
1568.47	0.616458
1567.61	0.565169
1566.75	0.517419
1565.9	0.474501
1565.04	0.438073
1564.18	0.406983
1563.33	0.380182
1562.47	0.357977
1561.61	0.338605
1560.75	0.321782
1559.89	0.307933
1559.04	0.296612
1558.18	0.288594
1557.32	0.282833
1556.46	0.278469
1555.6	0.275386
1554.74	0.272958
1553.88	0.270653
1553.02	0.267968
1552.16	0.264841
1551.3	0.262301
1550.44	0.259376
1549.58	0.256684
1548.72	0.25415
1547.86	0.251707
1547	0.249612
1546.14	0.246615
1545.28	0.243819
1544.42	0.24133
1543.56	0.238823
1542.7	0.236589
1541.84	0.234876
1540.98	0.233301
1540.11	0.232123
1539.25	0.23071
1538.39	0.230314
1537.53	0.22932
1536.67	0.228785
1535.8	0.228282
1534.94	0.227571
1534.08	0.226282
1533.22	0.225438
1532.35	0.224535
1531.49	0.224108
1530.63	0.22374
1529.76	0.224336
1528.9	0.224598
1528.04	0.224576
1527.17	0.224337
1526.31	0.224288
1525.44	0.223648
1524.58	0.222959
1523.72	0.223036
1522.85	0.223074
1521.99	0.222921
1521.12	0.223023
1520.26	0.222966
1519.39	0.223087
1518.53	0.222737
1517.66	0.222329
1516.8	0.222216
1515.93	0.221882
1515.06	0.222065
1514.2	0.222083
1513.33	0.221951
1512.47	0.221936
1511.6	0.221679
1510.73	0.221376
1509.87	0.22114
1509	0.220605
1508.13	0.220662
1507.26	0.220901
1506.4	0.221066
1505.53	0.221126
1504.66	0.221225
1503.79	0.221293
1502.93	0.22122
1502.06	0.22082
1501.19	0.221025
1500.32	0.221524
1499.45	0.222154
1498.58	0.222711
1497.71	0.222979
1496.85	0.222856
1495.98	0.22285
1495.11	0.22259
1494.24	0.222655
1493.37	0.222432
1492.5	0.222878
1491.63	0.222964
1490.76	0.222825
1489.89	0.223064
1489.02	0.223498
1488.15	0.223458
1487.28	0.223978
1486.4	0.224158
1485.53	0.224472
1484.66	0.224563
1483.79	0.224663
1482.92	0.225236
1482.05	0.225837
1481.18	0.226257
1480.3	0.227322
1479.43	0.227992
1478.56	0.22885
1477.69	0.229416
1476.82	0.229864
1475.94	0.230128
1475.07	0.229943
1474.2	0.229295
1473.32	0.228292
1472.45	0.226998
1471.58	0.226262
1470.7	0.225336
1469.83	0.224767
1468.96	0.224557
1468.08	0.224384
1467.21	0.224338
1466.33	0.224133
1465.46	0.223886
1464.58	0.223285
1463.71	0.222749
1462.83	0.222241
1461.96	0.222013
1461.08	0.222072
1460.21	0.22221
1459.33	0.22239
1458.46	0.222501
1457.58	0.222033
1456.71	0.22216
1455.83	0.222032
1454.95	0.221942
1454.08	0.221992
1453.2	0.222022
1452.32	0.221865
1451.45	0.221995
1450.57	0.221916
1449.69	0.222162
1448.82	0.222206
1447.94	0.222337
1447.06	0.22266
1446.18	0.222798
1445.3	0.222613
1444.43	0.222959
1443.55	0.222261
1442.67	0.221997
1441.79	0.221984
1440.91	0.221944
1440.03	0.222564
1439.15	0.222844
1438.28	0.223125
1437.4	0.223334
1436.52	0.222968
1435.64	0.223103
1434.76	0.223104
1433.88	0.223033
1433	0.223161
1432.12	0.22331
1431.24	0.223479
1430.36	0.223245
1429.47	0.223598
1428.59	0.223383
1427.71	0.223443
1426.83	0.223233
1425.95	0.223459
1425.07	0.223735
1424.19	0.223824
1423.31	0.223589
1422.42	0.224136
1421.54	0.224543
1420.66	0.225141
1419.78	0.225514
1418.89	0.226251
1418.01	0.226272
1417.13	0.226089
1416.25	0.225861
1415.36	0.225801
1414.48	0.225905
1413.6	0.226208
1412.71	0.226458
1411.83	0.226587
1410.94	0.226702
1410.06	0.226307
1409.18	0.225944
1408.29	0.225652
1407.41	0.22579
1406.52	0.225996
1405.64	0.225896
1404.75	0.225728
1403.87	0.22579
1402.98	0.225588
1402.1	0.226006
1401.21	0.226643
1400.33	0.227175
1399.44	0.2273
1398.55	0.227714
1397.67	0.227673
1396.78	0.228124
1395.89	0.228734
1395.01	0.229322
1394.12	0.229359
1393.23	0.229416
1392.35	0.229696
1391.46	0.230243
1390.57	0.230642
1389.68	0.23158
1388.8	0.231968
1387.91	0.231479
1387.02	0.230171
1386.13	0.229321
1385.24	0.228705
1384.36	0.227908
1383.47	0.227488
1382.58	0.227466
1381.69	0.227072
1380.8	0.226679
1379.91	0.226492
1379.02	0.226666
1378.13	0.226671
1377.24	0.227163
1376.35	0.227389
1375.46	0.227478
1374.57	0.226988
1373.68	0.226874
1372.79	0.226892
1371.9	0.226784
1371.01	0.226549
1370.12	0.227078
1369.23	0.227528
1368.33	0.227452
1367.44	0.227182
1366.55	0.227268
1365.66	0.227317
1364.77	0.227486
1363.88	0.227452
1362.98	0.227773
1362.09	0.228166
1361.2	0.227725
1360.31	0.227245
1359.41	0.226683
1358.52	0.226819
1357.63	0.226643
1356.73	0.226524
1355.84	0.226848
1354.95	0.22709
1354.05	0.227333
1353.16	0.227188
1352.26	0.226959
1351.37	0.227008
1350.47	0.226612
1349.58	0.226312
1348.69	0.226154
1347.79	0.226419
1346.9	0.226768
1346	0.226677
1345.1	0.226625
1344.21	0.226556
1343.31	0.22655
1342.42	0.226442
1341.52	0.226206
1340.63	0.226416
1339.73	0.22599
1338.83	0.225725
1337.94	0.225364
1337.04	0.225462
1336.14	0.225355
1335.25	0.225572
1334.35	0.225418
1333.45	0.225363
1332.55	0.224961
1331.66	0.225294
1330.76	0.22505
1329.86	0.225017
1328.96	0.22495
1328.06	0.224955
1327.16	0.224726
1326.27	0.224727
1325.37	0.225078
1324.47	0.225496
1323.57	0.225235
1322.67	0.224969
1321.77	0.225072
1320.87	0.224858
1319.97	0.224958
1319.07	0.224775
1318.17	0.224987
1317.27	0.224424
1316.37	0.22395
1315.47	0.223712
1314.57	0.22392
1313.67	0.223778
1312.77	0.223641
1311.86	0.223619
1310.96	0.224001
1310.06	0.224131
1309.16	0.224525
1308.26	0.224907
1307.36	0.225522
1306.45	0.225893
1305.55	0.226643
1304.65	0.227908
1303.75	0.229151
1302.84	0.23062
1301.94	0.232352
1301.04	0.233541
1300.13	0.234571
1299.23	0.235302
1298.33	0.235728
1297.42	0.235503
1296.52	0.235112
1295.62	0.234777
1294.71	0.23427
1293.81	0.233116
1292.9	0.231665
1292	0.230308
1291.09	0.228584
1290.19	0.227142
1289.28	0.225898
1288.38	0.225174
1287.47	0.224515
1286.57	0.224398
1285.66	0.224381
1284.75	0.224836
1283.85	0.224924
1282.94	0.224544
1282.04	0.224271
1281.13	0.223781
1280.22	0.223524
1279.32	0.223493
1278.41	0.224027
1277.5	0.224948
1276.59	0.225889
1275.69	0.22659
1274.78	0.227512
1273.87	0.227914
1272.96	0.229014
1272.05	0.230059
1271.15	0.231767
1270.24	0.233373
1269.33	0.235437
1268.42	0.237118
1267.51	0.238642
1266.6	0.239588
1265.69	0.240938
1264.78	0.241903
1263.87	0.242632
1262.96	0.242969
1262.05	0.243905
1261.14	0.243659
1260.23	0.243691
1259.32	0.243235
1258.41	0.243312
1257.5	0.242583
1256.59	0.241811
1255.68	0.241026
1254.77	0.240139
1253.86	0.238507
1252.95	0.237352
1252.03	0.236096
1251.12	0.23524
1250.21	0.233688
1249.3	0.232228
1248.39	0.230876
1247.47	0.229709
1246.56	0.228755
1245.65	0.228035
1244.73	0.22718
1243.82	0.226877
1242.91	0.226637
1241.99	0.226477
1241.08	0.226273
1240.17	0.226875
1239.25	0.227072
1238.34	0.226822
1237.42	0.226385
1236.51	0.226108
1235.6	0.225789
1234.68	0.225714
1233.77	0.225319
1232.85	0.225292
1231.94	0.225537
1231.02	0.225503
1230.1	0.225614
1229.19	0.225715
1228.27	0.225324
1227.36	0.225468
1226.44	0.225289
1225.52	0.22474
1224.61	0.22462
1223.69	0.224336
1222.77	0.22436
1221.86	0.224701
1220.94	0.224725
1220.02	0.225392
1219.11	0.225666
1218.19	0.225385
1217.27	0.22508
1216.35	0.224949
1215.43	0.224802
1214.52	0.224887
1213.6	0.224857
1212.68	0.225282
1211.76	0.225675
1210.84	0.225782
1209.92	0.226059
1209	0.226172
1208.08	0.226258
1207.16	0.226241
1206.24	0.226272
1205.32	0.226337
1204.4	0.226423
1203.48	0.226389
1202.56	0.22651
1201.64	0.226653
1200.72	0.226783
1199.8	0.227065
1198.88	0.227829
1197.96	0.228472
1197.04	0.229117
1196.11	0.230144
1195.19	0.231628
1194.27	0.233868
1193.35	0.23625
1192.43	0.23985
1191.5	0.244893
1190.58	0.251398
1189.66	0.259608
1188.74	0.270124
1187.81	0.2823
1186.89	0.29607
1185.97	0.310588
1185.04	0.324912
1184.12	0.337988
1183.2	0.347959
1182.27	0.354471
1181.35	0.356742
1180.42	0.35418
1179.5	0.347242
1178.57	0.337936
1177.65	0.326495
1176.72	0.313364
1175.8	0.29928
1174.87	0.285646
1173.95	0.272662
1173.02	0.261282
1172.1	0.251405
1171.17	0.244418
1170.24	0.239459
1169.32	0.235835
1168.39	0.234033
1167.46	0.232801
1166.54	0.231959
1165.61	0.231087
1164.68	0.230563
1163.76	0.230307
1162.83	0.229791
1161.9	0.229862
1160.97	0.22983
1160.05	0.229876
1159.12	0.230035
1158.19	0.230023
1157.26	0.230405
1156.33	0.23119
1155.4	0.231285
1154.47	0.23223
1153.55	0.232496
1152.62	0.233666
1151.69	0.234277
1150.76	0.234918
1149.83	0.235395
1148.9	0.236006
1147.97	0.236203
1147.04	0.237318
1146.11	0.238274
1145.18	0.239988
1144.25	0.241615
1143.31	0.243086
1142.38	0.244883
1141.45	0.246385
1140.52	0.247755
1139.59	0.249572
1138.66	0.251245
1137.73	0.253458
1136.79	0.255761
1135.86	0.257816
1134.93	0.260581
1134	0.262527
1133.06	0.264553
1132.13	0.266891
1131.2	0.268993
1130.26	0.270802
1129.33	0.272369
1128.4	0.274468
1127.46	0.27767
1126.53	0.280383
1125.6	0.284239
1124.66	0.28831
1123.73	0.292359
1122.79	0.296184
1121.86	0.300298
1120.92	0.305352
1119.99	0.310496
1119.05	0.31476
1118.12	0.319111
1117.18	0.322272
1116.25	0.324828
1115.31	0.327356
1114.37	0.329688
1113.44	0.333125
1112.5	0.336309
1111.56	0.340403
1110.63	0.345056
1109.69	0.34983
1108.75	0.355102
1107.82	0.361187
1106.88	0.367338
1105.94	0.373892
1105	0.380326
1104.07	0.388619
1103.13	0.39711
1102.19	0.407071
1101.25	0.417138
1100.31	0.428423
1099.37	0.44025
1098.44	0.450776
1097.5	0.459735
1096.56	0.467671
1095.62	0.472971
1094.68	0.476316
1093.74	0.478149
1092.8	0.480367
1091.86	0.485805
1090.92	0.495487
1089.98	0.512936
1089.04	0.541842
1088.1	0.585147
1087.16	0.647011
1086.21	0.729661
1085.27	0.945078
1084.33	1
1083.39	0.922143
1082.45	0.746239
1081.51	0.513267
1080.56	0.271952
1079.62	0.0799412
1078.68	0
1077.74	0.10135
1076.79	0.101305
1075.85	0.00719692
1074.91	0.080601
1073.97	0.258917
1073.02	0.484107
1072.08	0.702459
1071.13	0.868045
1070.19	0.942966
1069.25	0.891964
1068.3	0.689061
1067.36	0.605165
1066.41	0.536261
1065.47	0.482299
1064.52	0.439889
1063.58	0.407288
1062.63	0.382839
1061.69	0.363098
1060.74	0.348687
1059.8	0.336567
1058.85	0.325108
1057.9	0.315627
1056.96	0.307266
1056.01	0.2996
1055.07	0.292139
1054.12	0.285805
1053.17	0.280205
1052.22	0.275369
1051.28	0.271033
1050.33	0.26713
1049.38	0.263905
1048.43	0.261281
1047.49	0.258594
1046.54	0.25627
1045.59	0.254229
1044.64	0.252371
1043.69	0.250699
1042.74	0.248459
1041.79	0.24661
1040.85	0.245375
1039.9	0.244066
1038.95	0.242921
1038	0.242225
1037.05	0.240974
1036.1	0.239343
1035.15	0.2382
1034.2	0.237075
1033.25	0.236229
1032.3	0.23571
1031.34	0.235535
1030.39	0.23535
1029.44	0.234864
1028.49	0.234059
1027.54	0.233626
1026.59	0.233223
1025.64	0.232913
1024.68	0.232924
1023.73	0.232893
1022.78	0.232884
1021.83	0.23292
1020.87	0.232948
1019.92	0.233615
1018.97	0.234968
1018.01	0.237771
1017.06	0.241588
1016.11	0.245999
1015.15	0.250207
1014.2	0.253402
1013.25	0.254911
1012.29	0.254551
1011.34	0.251934
1010.38	0.248646
1009.43	0.244572
1008.47	0.240365
1007.52	0.236668
1006.56	0.233427
1005.61	0.232274
1004.65	0.231219
1003.7	0.230773
1002.74	0.230757
1001.78	0.230848
1000.83	0.230321
999.871	0.229767
998.914	0.228654
997.957	0.22883
997	0.227658
996.043	0.227165
995.086	0.226564
994.128	0.226513
993.17	0.226435
992.212	0.225911
991.254	0.225697
990.296	0.225489
989.338	0.225158
988.379	0.22509
987.421	0.224603
986.462	0.224466
985.503	0.224196
984.543	0.223918
983.584	0.223782
982.624	0.223864
981.665	0.224525
980.705	0.224536
979.744	0.225289
978.784	0.225551
977.824	0.225195
976.863	0.225255
975.902	0.224904
974.941	0.224937
973.98	0.225001
973.019	0.225006
972.057	0.226178
971.096	0.226396
970.134	0.226406
969.172	0.227143
968.21	0.227334
967.247	0.227419
966.285	0.227374
965.322	0.22778
964.359	0.228052
963.396	0.228006
962.433	0.228409
961.47	0.228526
960.506	0.228412
959.542	0.228542
958.578	0.228127
957.614	0.228442
956.65	0.22814
955.686	0.228047
954.721	0.228357
953.756	0.227953
952.791	0.228423
951.826	0.228583
950.861	0.228185
949.895	0.228397
948.93	0.227939
947.964	0.228185
946.998	0.228675
946.032	0.22864
945.065	0.228826
944.099	0.228178
943.132	0.227763
942.165	0.227116
941.198	0.22644
940.231	0.226614
939.264	0.227
938.296	0.227221
937.328	0.227327
936.361	0.22669
935.392	0.226381
934.424	0.226017
933.456	0.225529
932.487	0.225563
931.518	0.225801
930.549	0.225981
929.58	0.225972
928.611	0.225705
927.641	0.225207
926.672	0.224719
925.702	0.223944
924.732	0.223842
923.762	0.224068
922.791	0.224004
921.821	0.223947
920.85	0.224133
919.879	0.224282
918.908	0.224338
917.937	0.224539
916.966	0.224492
915.994	0.224724
915.022	0.224269
914.05	0.224249
913.078	0.224304
912.106	0.224676
911.134	0.224714
910.161	0.224936
909.188	0.224293
908.215	0.223942
907.242	0.22354
906.269	0.223477
905.295	0.223543
904.321	0.223623
903.348	0.223494
902.373	0.223894
901.399	0.223461
900.425	0.223636
899.45	0.223047
898.476	0.222679
897.501	0.222635
896.526	0.222964
895.55	0.223153
894.575	0.223583
893.599	0.223323
892.623	0.223758
891.647	0.223409
890.671	0.223412
889.695	0.223191
888.718	0.223425
887.742	0.223708
886.765	0.223636
885.788	0.223659
884.811	0.224359
883.833	0.22464
882.856	0.225005
881.878	0.224724
880.9	0.224607
879.922	0.224916
878.944	0.224572
877.965	0.224975
876.987	0.22548
876.008	0.225448
875.029	0.225721
874.05	0.225451
873.07	0.225425
872.091	0.225595
871.111	0.225628
870.131	0.225708
869.151	0.22578
868.171	0.225499
867.191	0.225359
866.21	0.225174
865.229	0.225056
864.248	0.225458
863.267	0.226015
862.286	0.226052
861.304	0.226283
860.323	0.22588
859.341	0.225813
858.359	0.225466
857.377	0.225759
856.394	0.226476
855.412	0.227014
854.429	0.227088
853.446	0.227184
852.463	0.226947
851.48	0.227005
850.496	0.226935
849.513	0.227193
848.529	0.227337
847.545	0.227248
846.561	0.227025
845.577	0.226694
844.592	0.226922
843.607	0.227409
842.623	0.228071
841.638	0.228631
840.652	0.229887
839.667	0.230881
838.681	0.231601
837.696	0.232241
836.71	0.233336
835.724	0.234088
834.737	0.234747
833.751	0.235418
832.764	0.236421
831.777	0.236969
830.79	0.237335
829.803	0.238181
828.816	0.23905
827.828	0.23935
826.841	0.2395
825.853	0.239521
824.865	0.239563
823.876	0.239402
822.888	0.239006
821.899	0.238931
820.911	0.238718
819.922	0.238502
818.932	0.238235
817.943	0.237933
816.954	0.237649
815.964	0.237324
814.974	0.236318
813.984	0.235407
812.994	0.234875
812.003	0.234642
811.013	0.23433
810.022	0.233799
809.031	0.233584
808.04	0.233282
807.048	0.232171
806.057	0.231241
805.065	0.231044
804.073	0.23079
803.081	0.230536
802.089	0.230279
801.097	0.230452
