4001.37	0.379547
4000.9	0.379529
4000.42	0.379502
3999.94	0.379471
3999.47	0.379412
3998.99	0.379363
3998.51	0.379324
3998.04	0.379265
3997.56	0.379247
3997.08	0.379212
3996.6	0.379202
3996.13	0.379197
3995.65	0.379147
3995.17	0.379127
3994.7	0.379056
3994.22	0.379021
3993.74	0.378989
3993.26	0.378923
3992.79	0.378895
3992.31	0.378841
3991.83	0.378764
3991.35	0.378725
3990.88	0.378657
3990.4	0.378646
3989.92	0.378626
3989.44	0.378591
3988.96	0.378568
3988.49	0.378495
3988.01	0.378438
3987.53	0.378385
3987.05	0.378366
3986.57	0.378361
3986.09	0.378336
3985.61	0.37832
3985.14	0.378276
3984.66	0.378205
3984.18	0.37813
3983.7	0.378052
3983.22	0.378043
3982.74	0.378008
3982.26	0.377979
3981.78	0.377989
3981.3	0.377955
3980.83	0.377913
3980.35	0.37784
3979.87	0.377795
3979.39	0.377778
3978.91	0.377733
3978.43	0.377669
3977.95	0.377634
3977.47	0.377594
3976.99	0.377551
3976.51	0.377514
3976.03	0.377483
3975.55	0.377466
3975.07	0.377405
3974.59	0.37735
3974.11	0.37731
3973.63	0.377234
3973.15	0.377151
3972.67	0.377115
3972.19	0.377075
3971.71	0.377093
3971.23	0.377088
3970.74	0.377085
3970.26	0.377084
3969.78	0.377016
3969.3	0.376981
3968.82	0.376954
3968.34	0.376873
3967.86	0.376846
3967.38	0.37678
3966.9	0.376693
3966.42	0.376664
3965.93	0.376594
3965.45	0.376554
3964.97	0.376514
3964.49	0.376446
3964.01	0.376431
3963.53	0.376391
3963.04	0.376369
3962.56	0.376392
3962.08	0.37636
3961.6	0.376287
3961.12	0.376236
3960.63	0.376189
3960.15	0.376139
3959.67	0.37608
3959.19	0.376031
3958.71	0.376026
3958.22	0.375982
3957.74	0.375946
3957.26	0.375897
3956.77	0.375887
3956.29	0.375867
3955.81	0.375822
3955.33	0.375772
3954.84	0.375722
3954.36	0.37566
3953.88	0.375611
3953.39	0.375547
3952.91	0.375505
3952.43	0.37548
3951.94	0.375433
3951.46	0.375439
3950.98	0.375417
3950.49	0.375424
3950.01	0.375414
3949.53	0.375351
3949.04	0.375269
3948.56	0.375216
3948.07	0.375136
3947.59	0.375107
3947.11	0.375086
3946.62	0.375109
3946.14	0.375051
3945.65	0.375004
3945.17	0.374975
3944.69	0.374941
3944.2	0.374885
3943.72	0.37487
3943.23	0.374855
3942.75	0.374813
3942.26	0.374704
3941.78	0.374681
3941.29	0.374611
3940.81	0.374544
3940.32	0.374485
3939.84	0.374458
3939.35	0.374409
3938.87	0.374351
3938.38	0.374314
3937.9	0.37427
3937.41	0.374231
3936.93	0.374191
3936.44	0.374161
3935.95	0.374184
3935.47	0.37417
3934.98	0.374125
3934.5	0.374089
3934.01	0.374034
3933.52	0.373985
3933.04	0.373923
3932.55	0.373872
3932.07	0.373865
3931.58	0.37382
3931.09	0.373752
3930.61	0.373681
3930.12	0.373656
3929.63	0.373604
3929.15	0.373587
3928.66	0.373537
3928.17	0.373535
3927.69	0.373519
3927.2	0.373473
3926.71	0.373419
3926.23	0.373423
3925.74	0.37336
3925.25	0.37332
3924.76	0.373245
3924.28	0.373211
3923.79	0.373159
3923.3	0.373103
3922.81	0.373064
3922.33	0.37306
3921.84	0.373004
3921.35	0.372959
3920.86	0.372912
3920.38	0.37286
3919.89	0.372819
3919.4	0.372787
3918.91	0.372751
3918.42	0.372715
3917.94	0.372684
3917.45	0.372626
3916.96	0.372582
3916.47	0.372548
3915.98	0.372495
3915.49	0.37244
3915	0.372398
3914.52	0.37234
3914.03	0.37231
3913.54	0.372263
3913.05	0.372246
3912.56	0.372233
3912.07	0.372191
3911.58	0.372162
3911.09	0.372164
3910.6	0.372116
3910.11	0.372077
3909.62	0.372011
3909.14	0.371972
3908.65	0.371912
3908.16	0.371844
3907.67	0.371806
3907.18	0.371776
3906.69	0.37174
3906.2	0.371675
3905.71	0.371606
3905.22	0.371615
3904.73	0.371588
3904.24	0.371538
3903.75	0.37153
3903.26	0.371475
3902.77	0.371448
3902.27	0.371368
3901.78	0.371335
3901.29	0.371348
3900.8	0.371321
3900.31	0.371272
3899.82	0.371245
3899.33	0.371159
3898.84	0.37111
3898.35	0.371046
3897.86	0.370975
3897.37	0.370955
3896.87	0.370909
3896.38	0.370878
3895.89	0.370874
3895.4	0.370842
3894.91	0.370813
3894.42	0.370759
3893.93	0.370662
3893.43	0.370622
3892.94	0.370543
3892.45	0.37049
3891.96	0.370495
3891.47	0.370498
3890.97	0.370458
3890.48	0.370445
3889.99	0.370395
3889.5	0.37034
3889.01	0.370304
3888.51	0.370238
3888.02	0.370191
3887.53	0.370151
3887.03	0.370077
3886.54	0.370068
3886.05	0.369997
3885.56	0.369964
3885.06	0.369936
3884.57	0.36986
3884.08	0.369795
3883.58	0.369765
3883.09	0.369725
3882.6	0.369723
3882.1	0.369671
3881.61	0.369667
3881.12	0.369628
3880.62	0.369546
3880.13	0.369496
3879.64	0.369483
3879.14	0.369443
3878.65	0.369406
3878.15	0.369373
3877.66	0.369357
3877.17	0.369349
3876.67	0.369271
3876.18	0.369247
3875.68	0.369222
3875.19	0.369173
3874.7	0.369122
3874.2	0.369078
3873.71	0.369008
3873.21	0.368972
3872.72	0.36892
3872.22	0.368878
3871.73	0.368842
3871.23	0.368782
3870.74	0.368738
3870.24	0.368705
3869.75	0.36867
3869.25	0.36866
3868.76	0.36867
3868.26	0.36865
3867.77	0.368607
3867.27	0.368511
3866.77	0.368465
3866.28	0.368408
3865.78	0.368376
3865.29	0.368329
3864.79	0.368284
3864.3	0.368265
3863.8	0.368219
3863.3	0.368179
3862.81	0.368162
3862.31	0.368133
3861.81	0.368107
3861.32	0.368049
3860.82	0.36797
3860.33	0.367922
3859.83	0.367849
3859.33	0.36779
3858.84	0.367742
3858.34	0.367716
3857.84	0.367693
3857.35	0.367667
3856.85	0.367628
3856.35	0.36759
3855.85	0.367536
3855.36	0.367496
3854.86	0.367461
3854.36	0.367444
3853.86	0.367417
3853.37	0.367381
3852.87	0.367336
3852.37	0.367293
3851.87	0.367231
3851.38	0.367177
3850.88	0.367112
3850.38	0.367053
3849.88	0.366973
3849.38	0.366926
3848.89	0.366873
3848.39	0.366848
3847.89	0.366846
3847.39	0.366859
3846.89	0.366871
3846.39	0.366837
3845.9	0.366761
3845.4	0.366699
3844.9	0.366624
3844.4	0.366567
3843.9	0.366503
3843.4	0.366471
3842.9	0.366438
3842.4	0.366386
3841.91	0.366331
3841.41	0.366302
3840.91	0.36627
3840.41	0.366236
3839.91	0.366173
3839.41	0.366133
3838.91	0.366107
3838.41	0.366092
3837.91	0.366065
3837.41	0.36606
3836.91	0.366022
3836.41	0.365963
3835.91	0.365898
3835.41	0.365841
3834.91	0.365828
3834.41	0.36579
3833.91	0.365744
3833.41	0.365717
3832.91	0.365671
3832.41	0.365612
3831.91	0.365559
3831.41	0.365526
3830.91	0.365497
3830.4	0.365446
3829.9	0.365401
3829.4	0.365365
3828.9	0.36533
3828.4	0.36529
3827.9	0.365247
3827.4	0.365192
3826.9	0.365124
3826.4	0.365069
3825.89	0.364995
3825.39	0.364972
3824.89	0.36494
3824.39	0.36492
3823.89	0.364892
3823.39	0.364841
3822.88	0.364821
3822.38	0.364802
3821.88	0.364778
3821.38	0.364771
3820.88	0.364722
3820.37	0.364672
3819.87	0.364611
3819.37	0.364556
3818.87	0.364514
3818.36	0.364454
3817.86	0.36443
3817.36	0.364338
3816.86	0.364305
3816.35	0.364265
3815.85	0.364234
3815.35	0.364195
3814.84	0.364143
3814.34	0.364114
3813.84	0.364071
3813.33	0.363996
3812.83	0.36395
3812.33	0.363912
3811.82	0.363878
3811.32	0.363867
3810.82	0.363859
3810.31	0.363867
3809.81	0.363804
3809.31	0.363762
3808.8	0.36364
3808.3	0.363585
3807.79	0.363539
3807.29	0.363511
3806.79	0.363451
3806.28	0.363431
3805.78	0.363371
3805.27	0.363353
3804.77	0.363305
3804.26	0.36328
3803.76	0.363231
3803.25	0.363185
3802.75	0.363119
3802.24	0.363077
3801.74	0.363024
3801.23	0.363009
3800.73	0.36299
3800.22	0.362934
3799.72	0.362903
3799.21	0.362892
3798.71	0.362847
3798.2	0.362795
3797.7	0.362761
3797.19	0.362714
3796.69	0.362658
3796.18	0.362604
3795.67	0.362565
3795.17	0.362519
3794.66	0.362475
3794.16	0.36245
3793.65	0.362409
3793.14	0.362345
3792.64	0.362281
3792.13	0.362239
3791.63	0.362208
3791.12	0.362184
3790.61	0.362161
3790.11	0.362167
3789.6	0.36212
3789.09	0.362054
3788.59	0.362002
3788.08	0.361954
3787.57	0.361928
3787.06	0.36188
3786.56	0.361817
3786.05	0.361778
3785.54	0.3617
3785.04	0.361633
3784.53	0.361616
3784.02	0.36156
3783.51	0.361527
3783.01	0.361485
3782.5	0.361443
3781.99	0.361403
3781.48	0.361322
3780.97	0.361302
3780.47	0.361289
3779.96	0.361244
3779.45	0.361233
3778.94	0.36123
3778.43	0.361211
3777.93	0.361153
3777.42	0.361102
3776.91	0.361064
3776.4	0.360994
3775.89	0.36091
3775.38	0.360854
3774.87	0.360814
3774.36	0.36076
3773.86	0.360705
3773.35	0.360694
3772.84	0.360644
3772.33	0.3606
3771.82	0.360538
3771.31	0.360518
3770.8	0.360487
3770.29	0.360465
3769.78	0.360435
3769.27	0.360418
3768.76	0.360403
3768.25	0.36032
3767.74	0.360266
3767.23	0.360252
3766.72	0.360194
3766.21	0.360154
3765.7	0.360097
3765.19	0.360059
3764.68	0.360024
3764.17	0.359946
3763.66	0.35995
3763.15	0.359941
3762.64	0.359889
3762.13	0.35983
3761.62	0.359737
3761.11	0.359666
3760.6	0.359605
3760.09	0.359555
3759.57	0.359508
3759.06	0.359469
3758.55	0.359447
3758.04	0.359427
3757.53	0.359413
3757.02	0.359386
3756.51	0.359355
3756	0.359285
3755.48	0.35918
3754.97	0.359148
3754.46	0.359103
3753.95	0.35908
3753.44	0.35907
3752.92	0.359022
3752.41	0.359039
3751.9	0.359027
3751.39	0.35899
3750.88	0.358968
3750.36	0.358919
3749.85	0.358868
3749.34	0.35881
3748.83	0.358722
3748.31	0.358691
3747.8	0.358604
3747.29	0.358552
3746.78	0.358511
3746.26	0.358496
3745.75	0.358481
3745.24	0.358463
3744.72	0.358414
3744.21	0.358357
3743.7	0.358277
3743.18	0.358232
3742.67	0.35819
3742.16	0.358164
3741.64	0.358138
3741.13	0.358134
3740.61	0.358103
3740.1	0.358024
3739.59	0.357951
3739.07	0.357874
3738.56	0.357811
3738.04	0.357764
3737.53	0.357754
3737.02	0.357772
3736.5	0.357741
3735.99	0.357675
3735.47	0.357641
3734.96	0.357604
3734.44	0.357561
3733.93	0.357508
3733.41	0.357499
3732.9	0.357453
3732.38	0.3574
3731.87	0.357314
3731.35	0.357245
3730.84	0.357177
3730.32	0.357141
3729.81	0.357113
3729.29	0.35713
3728.78	0.357125
3728.26	0.357105
3727.75	0.357035
3727.23	0.356942
3726.71	0.356847
3726.2	0.356793
3725.68	0.356761
3725.17	0.356774
3724.65	0.356777
3724.13	0.356706
3723.62	0.356627
3723.1	0.35654
3722.59	0.356452
3722.07	0.356407
3721.55	0.356363
3721.04	0.356373
3720.52	0.356371
3720	0.356351
3719.49	0.356284
3718.97	0.356237
3718.45	0.356174
3717.93	0.356109
3717.42	0.356051
3716.9	0.356024
3716.38	0.356037
3715.87	0.356029
3715.35	0.355951
3714.83	0.355917
3714.31	0.355883
3713.8	0.355809
3713.28	0.35577
3712.76	0.355753
3712.24	0.355764
3711.72	0.355727
3711.21	0.355708
3710.69	0.355681
3710.17	0.355646
3709.65	0.355565
3709.13	0.355505
3708.61	0.35544
3708.1	0.35539
3707.58	0.355334
3707.06	0.355312
3706.54	0.355259
3706.02	0.355217
3705.5	0.355154
3704.98	0.355124
3704.46	0.355053
3703.95	0.355041
3703.43	0.355012
3702.91	0.355005
3702.39	0.354975
3701.87	0.354951
3701.35	0.354905
3700.83	0.354855
3700.31	0.354794
3699.79	0.354754
3699.27	0.354687
3698.75	0.354627
3698.23	0.354577
3697.71	0.35454
3697.19	0.354482
3696.67	0.354407
3696.15	0.354376
3695.63	0.354359
3695.11	0.354316
3694.59	0.354255
3694.07	0.35423
3693.55	0.354183
3693.03	0.354112
3692.51	0.354038
3691.99	0.35402
3691.46	0.354007
3690.94	0.354
3690.42	0.353979
3689.9	0.353969
3689.38	0.353921
3688.86	0.353868
3688.34	0.353797
3687.82	0.353767
3687.29	0.353691
3686.77	0.353649
3686.25	0.353577
3685.73	0.353518
3685.21	0.353455
3684.69	0.353405
3684.16	0.353365
3683.64	0.353366
3683.12	0.353314
3682.6	0.3533
3682.08	0.353239
3681.55	0.353208
3681.03	0.353135
3680.51	0.353083
3679.99	0.353031
3679.46	0.353004
3678.94	0.352953
3678.42	0.352944
3677.89	0.352893
3677.37	0.352867
3676.85	0.3528
3676.33	0.352757
3675.8	0.35272
3675.28	0.352697
3674.76	0.352662
3674.23	0.352628
3673.71	0.352577
3673.19	0.352521
3672.66	0.352466
3672.14	0.352426
3671.61	0.352387
3671.09	0.35233
3670.57	0.352267
3670.04	0.352246
3669.52	0.352219
3668.99	0.352181
3668.47	0.352178
3667.95	0.352161
3667.42	0.352071
3666.9	0.351958
3666.37	0.351874
3665.85	0.351858
3665.32	0.351825
3664.8	0.351805
3664.27	0.351823
3663.75	0.3518
3663.22	0.351701
3662.7	0.35163
3662.17	0.351582
3661.65	0.351537
3661.12	0.35147
3660.6	0.351436
3660.07	0.351398
3659.55	0.351384
3659.02	0.351324
3658.49	0.35134
3657.97	0.35129
3657.44	0.351245
3656.92	0.351181
3656.39	0.351115
3655.86	0.351057
3655.34	0.35104
3654.81	0.350973
3654.29	0.350976
3653.76	0.350915
3653.23	0.350881
3652.71	0.350799
3652.18	0.350787
3651.65	0.350777
3651.13	0.350765
3650.6	0.350729
3650.07	0.350738
3649.55	0.350703
3649.02	0.350648
3648.49	0.350533
3647.96	0.350496
3647.44	0.350424
3646.91	0.350375
3646.38	0.350316
3645.85	0.350269
3645.33	0.350222
3644.8	0.350212
3644.27	0.350159
3643.74	0.350137
3643.22	0.350077
3642.69	0.350015
3642.16	0.349945
3641.63	0.349892
3641.1	0.349848
3640.57	0.349841
3640.05	0.349812
3639.52	0.349764
3638.99	0.349692
3638.46	0.349617
3637.93	0.34956
3637.4	0.349528
3636.87	0.349458
3636.35	0.349427
3635.82	0.349389
3635.29	0.349384
3634.76	0.349397
3634.23	0.349374
3633.7	0.349336
3633.17	0.349286
3632.64	0.349207
3632.11	0.349103
3631.58	0.349035
3631.05	0.349029
3630.52	0.349019
3629.99	0.348995
3629.46	0.348956
3628.93	0.348913
3628.4	0.348848
3627.87	0.348763
3627.34	0.348712
3626.81	0.348677
3626.28	0.348626
3625.75	0.348583
3625.22	0.348533
3624.69	0.348513
3624.16	0.348486
3623.63	0.348476
3623.1	0.348444
3622.57	0.348406
3622.03	0.348332
3621.5	0.348303
3620.97	0.348241
3620.44	0.348172
3619.91	0.348123
3619.38	0.348096
3618.85	0.348065
3618.32	0.348013
3617.78	0.347951
3617.25	0.347941
3616.72	0.347902
3616.19	0.347838
3615.66	0.347789
3615.12	0.347746
3614.59	0.347692
3614.06	0.347657
3613.53	0.347608
3613	0.347594
3612.46	0.347608
3611.93	0.347574
3611.4	0.347522
3610.86	0.347521
3610.33	0.347461
3609.8	0.347432
3609.27	0.347371
3608.73	0.347316
3608.2	0.347265
3607.67	0.347149
3607.13	0.34706
3606.6	0.34703
3606.07	0.346952
3605.53	0.346922
3605	0.346898
3604.47	0.346889
3603.93	0.346884
3603.4	0.346811
3602.87	0.346763
3602.33	0.3467
3601.8	0.346623
3601.26	0.346568
3600.73	0.346546
3600.2	0.346507
3599.66	0.346518
3599.13	0.346544
3598.59	0.34654
3598.06	0.346501
3597.52	0.346419
3596.99	0.346343
3596.45	0.346275
3595.92	0.346211
3595.38	0.346166
3594.85	0.346149
3594.31	0.346079
3593.78	0.34602
3593.24	0.345944
3592.71	0.345876
3592.17	0.34582
3591.64	0.345812
3591.1	0.345775
3590.57	0.345715
3590.03	0.34567
3589.49	0.345652
3588.96	0.345642
3588.42	0.345583
3587.89	0.345538
3587.35	0.34551
3586.81	0.345499
3586.28	0.345443
3585.74	0.345431
3585.2	0.34542
3584.67	0.345404
3584.13	0.345327
3583.6	0.345264
3583.06	0.345195
3582.52	0.345114
3581.98	0.345051
3581.45	0.345003
3580.91	0.344943
3580.37	0.344901
3579.84	0.344838
3579.3	0.3448
3578.76	0.344768
3578.22	0.34473
3577.69	0.34474
3577.15	0.344704
3576.61	0.344672
3576.07	0.344615
3575.54	0.344549
3575	0.344489
3574.46	0.344439
3573.92	0.344438
3573.38	0.344436
3572.85	0.344394
3572.31	0.344374
3571.77	0.344285
3571.23	0.344243
3570.69	0.344209
3570.15	0.344144
3569.61	0.344116
3569.08	0.344085
3568.54	0.344039
3568	0.343983
3567.46	0.343907
3566.92	0.343859
3566.38	0.343815
3565.84	0.343764
3565.3	0.343732
3564.76	0.343696
3564.22	0.343649
3563.68	0.343594
3563.14	0.343558
3562.6	0.343518
3562.06	0.343455
3561.52	0.343441
3560.98	0.343412
3560.44	0.343358
3559.9	0.343326
3559.36	0.343227
3558.82	0.343176
3558.28	0.343143
3557.74	0.343099
3557.2	0.343092
3556.66	0.343088
3556.12	0.343046
3555.58	0.343025
3555.04	0.342963
3554.5	0.342899
3553.96	0.342875
3553.42	0.342823
3552.87	0.342771
3552.33	0.342703
3551.79	0.342603
3551.25	0.342564
3550.71	0.342504
3550.17	0.34244
3549.63	0.342417
3549.08	0.342357
3548.54	0.342329
3548	0.342283
3547.46	0.342269
3546.92	0.342286
3546.37	0.342211
3545.83	0.342178
3545.29	0.342141
3544.75	0.342072
3544.21	0.341999
3543.66	0.341991
3543.12	0.341992
3542.58	0.341935
3542.03	0.341869
3541.49	0.341826
3540.95	0.341772
3540.41	0.341674
3539.86	0.341627
3539.32	0.341605
3538.78	0.34154
3538.23	0.341466
3537.69	0.341446
3537.15	0.341412
3536.6	0.341393
3536.06	0.34135
3535.52	0.341352
3534.97	0.341288
3534.43	0.341227
3533.88	0.341178
3533.34	0.341118
3532.8	0.341083
3532.25	0.341062
3531.71	0.341004
3531.16	0.34098
3530.62	0.340935
3530.07	0.340905
3529.53	0.340829
3528.98	0.340776
3528.44	0.340741
3527.89	0.340706
3527.35	0.340652
3526.8	0.340641
3526.26	0.340588
3525.71	0.340533
3525.17	0.340479
3524.62	0.340442
3524.08	0.340399
3523.53	0.340352
3522.99	0.340313
3522.44	0.340268
3521.9	0.340165
3521.35	0.340113
3520.8	0.340106
3520.26	0.340037
3519.71	0.340013
3519.17	0.339956
3518.62	0.339924
3518.07	0.339862
3517.53	0.339801
3516.98	0.339847
3516.43	0.339851
3515.89	0.339797
3515.34	0.339747
3514.79	0.339684
3514.25	0.339588
3513.7	0.339493
3513.15	0.339396
3512.61	0.339388
3512.06	0.339361
3511.51	0.339315
3510.96	0.33929
3510.42	0.339293
3509.87	0.339255
3509.32	0.339182
3508.77	0.339102
3508.23	0.339044
3507.68	0.339
3507.13	0.338971
3506.58	0.338959
3506.04	0.338977
3505.49	0.338985
3504.94	0.338929
3504.39	0.338853
3503.84	0.338763
3503.29	0.338688
3502.75	0.338609
3502.2	0.338514
3501.65	0.338525
3501.1	0.338543
3500.55	0.338543
3500	0.338513
3499.45	0.33849
3498.9	0.338436
3498.35	0.338344
3497.8	0.338255
3497.26	0.33824
3496.71	0.338173
3496.16	0.338118
3495.61	0.338055
3495.06	0.337987
3494.51	0.33794
3493.96	0.337901
3493.41	0.337882
3492.86	0.337862
3492.31	0.33781
3491.76	0.337791
3491.21	0.337737
3490.66	0.337671
3490.11	0.337614
3489.56	0.337572
3489	0.337523
3488.45	0.337479
3487.9	0.33743
3487.35	0.337427
3486.8	0.337397
3486.25	0.337353
3485.7	0.337275
3485.15	0.337234
3484.6	0.337198
3484.05	0.337167
3483.49	0.337133
3482.94	0.337116
3482.39	0.337038
3481.84	0.336961
3481.29	0.336875
3480.74	0.336822
3480.18	0.336774
3479.63	0.336726
3479.08	0.336691
3478.53	0.336655
3477.98	0.33657
3477.42	0.336537
3476.87	0.336515
3476.32	0.336484
3475.77	0.336433
3475.21	0.336367
3474.66	0.33629
3474.11	0.336255
3473.56	0.33621
3473	0.336201
3472.45	0.336166
3471.9	0.336136
3471.34	0.336101
3470.79	0.336027
3470.24	0.335977
3469.68	0.335983
3469.13	0.335979
3468.58	0.335923
3468.02	0.335869
3467.47	0.335835
3466.91	0.335795
3466.36	0.335752
3465.81	0.335731
3465.25	0.335702
3464.7	0.335655
3464.14	0.335586
3463.59	0.335539
3463.04	0.335496
3462.48	0.335446
3461.93	0.335396
3461.37	0.335351
3460.82	0.335248
3460.26	0.33523
3459.71	0.335183
3459.15	0.335139
3458.6	0.335139
3458.04	0.3351
3457.49	0.335052
3456.93	0.334996
3456.38	0.334909
3455.82	0.334868
3455.27	0.334784
3454.71	0.334745
3454.15	0.334747
3453.6	0.334734
3453.04	0.334643
3452.49	0.334591
3451.93	0.334519
3451.37	0.334463
3450.82	0.334442
3450.26	0.334412
3449.7	0.334348
3449.15	0.334335
3448.59	0.334261
3448.04	0.334242
3447.48	0.334195
3446.92	0.33421
3446.36	0.334183
3445.81	0.33408
3445.25	0.334009
3444.69	0.333982
3444.14	0.333982
3443.58	0.333964
3443.02	0.333905
3442.46	0.333912
3441.91	0.333858
3441.35	0.333761
3440.79	0.333696
3440.23	0.333619
3439.68	0.33359
3439.12	0.333505
3438.56	0.333406
3438	0.333406
3437.44	0.333427
3436.88	0.333407
3436.33	0.333365
3435.77	0.333339
3435.21	0.333268
3434.65	0.333189
3434.09	0.333074
3433.53	0.333039
3432.97	0.333066
3432.42	0.333061
3431.86	0.333028
3431.3	0.33298
3430.74	0.332906
3430.18	0.332847
3429.62	0.332751
3429.06	0.332708
3428.5	0.332692
3427.94	0.332679
3427.38	0.332621
3426.82	0.332575
3426.26	0.332552
3425.7	0.332508
3425.14	0.332452
3424.58	0.33237
3424.02	0.33235
3423.46	0.332333
3422.9	0.332285
3422.34	0.332237
3421.78	0.332188
3421.22	0.332141
3420.66	0.332105
3420.1	0.332066
3419.54	0.332086
3418.98	0.332034
3418.41	0.331969
3417.85	0.331877
3417.29	0.3318
3416.73	0.331756
3416.17	0.331772
3415.61	0.331734
3415.05	0.331707
3414.49	0.331643
3413.92	0.331579
3413.36	0.331483
3412.8	0.331403
3412.24	0.331365
3411.68	0.33135
3411.11	0.331293
3410.55	0.331221
3409.99	0.331192
3409.43	0.331152
3408.86	0.331075
3408.3	0.331045
3407.74	0.331026
3407.18	0.331022
3406.61	0.33098
3406.05	0.33092
3405.49	0.330869
3404.92	0.330808
3404.36	0.330742
3403.8	0.33065
3403.24	0.330618
3402.67	0.330625
3402.11	0.330597
3401.54	0.330573
3400.98	0.330543
3400.42	0.330502
3399.85	0.330422
3399.29	0.330336
3398.73	0.330318
3398.16	0.330308
3397.6	0.330264
3397.03	0.330222
3396.47	0.330205
3395.9	0.330164
3395.34	0.330086
3394.78	0.330054
3394.21	0.330001
3393.65	0.329948
3393.08	0.32989
3392.52	0.329862
3391.95	0.329845
3391.39	0.329829
3390.82	0.329742
3390.26	0.329686
3389.69	0.329638
3389.13	0.329553
3388.56	0.329508
3387.99	0.329449
3387.43	0.329396
3386.86	0.329369
3386.3	0.329255
3385.73	0.329234
3385.17	0.329242
3384.6	0.329264
3384.03	0.329263
3383.47	0.329229
3382.9	0.329165
3382.33	0.329112
3381.77	0.329042
3381.2	0.328974
3380.63	0.32895
3380.07	0.328919
3379.5	0.328804
3378.93	0.328734
3378.37	0.328673
3377.8	0.328636
3377.23	0.328606
3376.67	0.32857
3376.1	0.328557
3375.53	0.328498
3374.96	0.328411
3374.4	0.328408
3373.83	0.328372
3373.26	0.32831
3372.69	0.328296
3372.12	0.328269
3371.56	0.328209
3370.99	0.328141
3370.42	0.32809
3369.85	0.328042
3369.28	0.328007
3368.72	0.327973
3368.15	0.327949
3367.58	0.32788
3367.01	0.327825
3366.44	0.327777
3365.87	0.327762
3365.3	0.327731
3364.73	0.327742
3364.17	0.327714
3363.6	0.327631
3363.03	0.327552
3362.46	0.327485
3361.89	0.327441
3361.32	0.327356
3360.75	0.327324
3360.18	0.327311
3359.61	0.327254
3359.04	0.327188
3358.47	0.327131
3357.9	0.327093
3357.33	0.32702
3356.76	0.326945
3356.19	0.326901
3355.62	0.326884
3355.05	0.326849
3354.48	0.326819
3353.91	0.326789
3353.34	0.326767
3352.77	0.326658
3352.19	0.326643
3351.62	0.326566
3351.05	0.326575
3350.48	0.32658
3349.91	0.326562
3349.34	0.326526
3348.77	0.326469
3348.2	0.326332
3347.62	0.326297
3347.05	0.326248
3346.48	0.326269
3345.91	0.326239
3345.34	0.3262
3344.76	0.326128
3344.19	0.326035
3343.62	0.325935
3343.05	0.325878
3342.48	0.325814
3341.9	0.325807
3341.33	0.32581
3340.76	0.325763
3340.19	0.325706
3339.61	0.325663
3339.04	0.325658
3338.47	0.325601
3337.89	0.325547
3337.32	0.325517
3336.75	0.325512
3336.17	0.325467
3335.6	0.325384
3335.03	0.325337
3334.45	0.32529
3333.88	0.325216
3333.31	0.325154
3332.73	0.32507
3332.16	0.325017
3331.59	0.324995
3331.01	0.324932
3330.44	0.324936
3329.86	0.324924
3329.29	0.324898
3328.71	0.32484
3328.14	0.324775
3327.56	0.324732
3326.99	0.324704
3326.42	0.32462
3325.84	0.324606
3325.27	0.324542
3324.69	0.324465
3324.12	0.32439
3323.54	0.324353
3322.97	0.324365
3322.39	0.324374
3321.81	0.324315
3321.24	0.324273
3320.66	0.3242
3320.09	0.324151
3319.51	0.324053
3318.94	0.323998
3318.36	0.323958
3317.78	0.323895
3317.21	0.323828
3316.63	0.323794
3316.06	0.323744
3315.48	0.323729
3314.9	0.323686
3314.33	0.323694
3313.75	0.323679
3313.17	0.323661
3312.6	0.323602
3312.02	0.323558
3311.44	0.323446
3310.86	0.323392
3310.29	0.323343
3309.71	0.323321
3309.13	0.323305
3308.56	0.323309
3307.98	0.323272
3307.4	0.323243
3306.82	0.32321
3306.25	0.323176
3305.67	0.323092
3305.09	0.322989
3304.51	0.322901
3303.93	0.322814
3303.36	0.322787
3302.78	0.322705
3302.2	0.322673
3301.62	0.322638
3301.04	0.322586
3300.46	0.322551
3299.88	0.322521
3299.31	0.322449
3298.73	0.322467
3298.15	0.322369
3297.57	0.322342
3296.99	0.322345
3296.41	0.322321
3295.83	0.322299
3295.25	0.322227
3294.67	0.322135
3294.09	0.322089
3293.51	0.322015
3292.93	0.321938
3292.35	0.321925
3291.77	0.321924
3291.19	0.321926
3290.61	0.321862
3290.03	0.32183
3289.45	0.321805
3288.87	0.321756
3288.29	0.321659
3287.71	0.321584
3287.13	0.32153
3286.55	0.321493
3285.97	0.321421
3285.39	0.32145
3284.81	0.321459
3284.23	0.321395
3283.64	0.321402
3283.06	0.32135
3282.48	0.32128
3281.9	0.321225
3281.32	0.32118
3280.74	0.321141
3280.16	0.320993
3279.57	0.320915
3278.99	0.320911
3278.41	0.320866
3277.83	0.32082
3277.25	0.320788
3276.66	0.320811
3276.08	0.320771
3275.5	0.320669
3274.92	0.320672
3274.33	0.320623
3273.75	0.320503
3273.17	0.320423
3272.59	0.320363
3272	0.320338
3271.42	0.320329
3270.84	0.3203
3270.25	0.320328
3269.67	0.320288
3269.09	0.320194
3268.5	0.320127
3267.92	0.320068
3267.34	0.319997
3266.75	0.319939
3266.17	0.319918
3265.59	0.319881
3265	0.319862
3264.42	0.319888
3263.83	0.319908
3263.25	0.31988
3262.67	0.319807
3262.08	0.319703
3261.5	0.319551
3260.91	0.319378
3260.33	0.319324
3259.74	0.319291
3259.16	0.31926
3258.57	0.319243
3257.99	0.319226
3257.4	0.319182
3256.82	0.319085
3256.23	0.319048
3255.65	0.319025
3255.06	0.319005
3254.48	0.318997
3253.89	0.318985
3253.3	0.318947
3252.72	0.318905
3252.13	0.31888
3251.55	0.318839
3250.96	0.318769
3250.37	0.318698
3249.79	0.318656
3249.2	0.318601
3248.62	0.318562
3248.03	0.318597
3247.44	0.318592
3246.86	0.318546
3246.27	0.318469
3245.68	0.318381
3245.09	0.318317
3244.51	0.318254
3243.92	0.318196
3243.33	0.318127
3242.75	0.318057
3242.16	0.318032
3241.57	0.317982
3240.98	0.317959
3240.4	0.317934
3239.81	0.317958
3239.22	0.31796
3238.63	0.317884
3238.04	0.317848
3237.46	0.317785
3236.87	0.317688
3236.28	0.317594
3235.69	0.317535
3235.1	0.317496
3234.51	0.317454
3233.93	0.317397
3233.34	0.317326
3232.75	0.317308
3232.16	0.31732
3231.57	0.317258
3230.98	0.317249
3230.39	0.317191
3229.8	0.31716
3229.21	0.317041
3228.62	0.316945
3228.04	0.316862
3227.45	0.316822
3226.86	0.316723
3226.27	0.316664
3225.68	0.316613
3225.09	0.316606
3224.5	0.316547
3223.91	0.316519
3223.32	0.316498
3222.73	0.316511
3222.14	0.316506
3221.54	0.31641
3220.95	0.316327
3220.36	0.316303
3219.77	0.31624
3219.18	0.316124
3218.59	0.31613
3218	0.316107
3217.41	0.316118
3216.82	0.316071
3216.23	0.316019
3215.63	0.316006
3215.04	0.315957
3214.45	0.315885
3213.86	0.315857
3213.27	0.315796
3212.68	0.315792
3212.08	0.315802
3211.49	0.315761
3210.9	0.315711
3210.31	0.315651
3209.72	0.31558
3209.12	0.315453
3208.53	0.315379
3207.94	0.315312
3207.35	0.315302
3206.75	0.315271
3206.16	0.31523
3205.57	0.315208
3204.97	0.315192
3204.38	0.315156
3203.79	0.315125
3203.2	0.315032
3202.6	0.315007
3202.01	0.314933
3201.41	0.314856
3200.82	0.314797
3200.23	0.314716
3199.63	0.314658
3199.04	0.31459
3198.45	0.31456
3197.85	0.314572
3197.26	0.314557
3196.66	0.314511
3196.07	0.314423
3195.47	0.31439
3194.88	0.31435
3194.29	0.314325
3193.69	0.314325
3193.1	0.314299
3192.5	0.314251
3191.91	0.314236
3191.31	0.314187
3190.72	0.314168
3190.12	0.314075
3189.53	0.31399
3188.93	0.313896
3188.33	0.313778
3187.74	0.313707
3187.14	0.31374
3186.55	0.313717
3185.95	0.313744
3185.36	0.313701
3184.76	0.313641
3184.16	0.313619
3183.57	0.313538
3182.97	0.313477
3182.37	0.313411
3181.78	0.313335
3181.18	0.313308
3180.58	0.313218
3179.99	0.313184
3179.39	0.313194
3178.79	0.313139
3178.2	0.313083
3177.6	0.313027
3177	0.312993
3176.41	0.312953
3175.81	0.312927
3175.21	0.312975
3174.61	0.312997
3174.02	0.312982
3173.42	0.312942
3172.82	0.312818
3172.22	0.312751
3171.62	0.312653
3171.03	0.312537
3170.43	0.312469
3169.83	0.312482
3169.23	0.312532
3168.63	0.31252
3168.03	0.3125
3167.43	0.312587
3166.84	0.312573
3166.24	0.312515
3165.64	0.312412
3165.04	0.312414
3164.44	0.312344
3163.84	0.312223
3163.24	0.312152
3162.64	0.312134
3162.04	0.312107
3161.44	0.312116
3160.84	0.312078
3160.24	0.312186
3159.64	0.312167
3159.04	0.312133
3158.44	0.312115
3157.84	0.312146
3157.24	0.312159
3156.64	0.312142
3156.04	0.31208
3155.44	0.312085
3154.84	0.311999
3154.24	0.311922
3153.64	0.311933
3153.04	0.31198
3152.44	0.312013
3151.84	0.312082
3151.24	0.312023
3150.64	0.311983
3150.03	0.31192
3149.43	0.31185
3148.83	0.31177
3148.23	0.311711
3147.63	0.311695
3147.03	0.311702
3146.42	0.311615
3145.82	0.311547
3145.22	0.311472
3144.62	0.311423
3144.02	0.31138
3143.41	0.311318
3142.81	0.311245
3142.21	0.311134
3141.61	0.311104
3141	0.311035
3140.4	0.310992
3139.8	0.310953
3139.19	0.310879
3138.59	0.310793
3137.99	0.310672
3137.39	0.310535
3136.78	0.310462
3136.18	0.310388
3135.58	0.310318
3134.97	0.310215
3134.37	0.310162
3133.76	0.310197
3133.16	0.310186
3132.56	0.310167
3131.95	0.310147
3131.35	0.310114
3130.74	0.310057
3130.14	0.309962
3129.54	0.309906
3128.93	0.309816
3128.33	0.309772
3127.72	0.30969
3127.12	0.309643
3126.51	0.309559
3125.91	0.30953
3125.3	0.309462
3124.7	0.309441
3124.09	0.309342
3123.49	0.309307
3122.88	0.30923
3122.27	0.309185
3121.67	0.30913
3121.06	0.309114
3120.46	0.309109
3119.85	0.309128
3119.25	0.309033
3118.64	0.308983
3118.03	0.308955
3117.43	0.308919
3116.82	0.308899
3116.21	0.308839
3115.61	0.30879
3115	0.308707
3114.39	0.30862
3113.79	0.308623
3113.18	0.308624
3112.57	0.308659
3111.97	0.308672
3111.36	0.308635
3110.75	0.308589
3110.15	0.308506
3109.54	0.308505
3108.93	0.308504
3108.32	0.308507
3107.71	0.308458
3107.11	0.308411
3106.5	0.308375
3105.89	0.308321
3105.28	0.308343
3104.67	0.308351
3104.07	0.308322
3103.46	0.308351
3102.85	0.308262
3102.24	0.308213
3101.63	0.308187
3101.02	0.308254
3100.41	0.308335
3099.81	0.308331
3099.2	0.308394
3098.59	0.308435
3097.98	0.308387
3097.37	0.308262
3096.76	0.308163
3096.15	0.308214
3095.54	0.308159
3094.93	0.308121
3094.32	0.308145
3093.71	0.308104
3093.1	0.308088
3092.49	0.308069
3091.88	0.308071
3091.27	0.30807
3090.66	0.308005
3090.05	0.307952
3089.44	0.307868
3088.83	0.307769
3088.22	0.307704
3087.61	0.307732
3087	0.307769
3086.39	0.307715
3085.77	0.30772
3085.16	0.307698
3084.55	0.307657
3083.94	0.307696
3083.33	0.307656
3082.72	0.307714
3082.11	0.307729
3081.49	0.307709
3080.88	0.307731
3080.27	0.307726
3079.66	0.307717
3079.05	0.307665
3078.43	0.307618
3077.82	0.307578
3077.21	0.307514
3076.6	0.307622
3075.98	0.30768
3075.37	0.307806
3074.76	0.307903
3074.15	0.308055
3073.53	0.30826
3072.92	0.308316
3072.31	0.308357
3071.69	0.308378
3071.08	0.308338
3070.47	0.30832
3069.85	0.308321
3069.24	0.308572
3068.63	0.308779
3068.01	0.308923
3067.4	0.309144
3066.79	0.309343
3066.17	0.309598
3065.56	0.309718
3064.94	0.309994
3064.33	0.310488
3063.71	0.310911
3063.1	0.311414
3062.48	0.311907
3061.87	0.312441
3061.26	0.312962
3060.64	0.313397
3060.03	0.314059
3059.41	0.314866
3058.79	0.315678
3058.18	0.316483
3057.56	0.317104
3056.95	0.31768
3056.33	0.318063
3055.72	0.31819
3055.1	0.318242
3054.49	0.318413
3053.87	0.318428
3053.25	0.318315
3052.64	0.318146
3052.02	0.317897
3051.41	0.317544
3050.79	0.317022
3050.17	0.316404
3049.56	0.31582
3048.94	0.315122
3048.32	0.314435
3047.71	0.313913
3047.09	0.313396
3046.47	0.312959
3045.85	0.312579
3045.24	0.31211
3044.62	0.311695
3044	0.311266
3043.38	0.310948
3042.77	0.310699
3042.15	0.310513
3041.53	0.31027
3040.91	0.310061
3040.3	0.309653
3039.68	0.309331
3039.06	0.308897
3038.44	0.308507
3037.82	0.308111
3037.2	0.30786
3036.59	0.307442
3035.97	0.307137
3035.35	0.306751
3034.73	0.306443
3034.11	0.306031
3033.49	0.305643
3032.87	0.305354
3032.25	0.305142
3031.63	0.304854
3031.01	0.304742
3030.39	0.304564
3029.77	0.304397
3029.15	0.304158
3028.54	0.303994
3027.92	0.303903
3027.3	0.303795
3026.68	0.303716
3026.05	0.303699
3025.43	0.30358
3024.81	0.303404
3024.19	0.303228
3023.57	0.30311
3022.95	0.303015
3022.33	0.302965
3021.71	0.30303
3021.09	0.303042
3020.47	0.303019
3019.85	0.302929
3019.23	0.302802
3018.61	0.302759
3017.98	0.30273
3017.36	0.302725
3016.74	0.302653
3016.12	0.302613
3015.5	0.30264
3014.88	0.302651
3014.25	0.302509
3013.63	0.302523
3013.01	0.302521
3012.39	0.30248
3011.76	0.30241
3011.14	0.3024
3010.52	0.30238
3009.9	0.302251
3009.27	0.302038
3008.65	0.301925
3008.03	0.301798
3007.4	0.301683
3006.78	0.301625
3006.16	0.30159
3005.54	0.301599
3004.91	0.301566
3004.29	0.301581
3003.66	0.301445
3003.04	0.301412
3002.42	0.30135
3001.79	0.301276
3001.17	0.301217
3000.54	0.301191
2999.92	0.301164
2999.3	0.301053
2998.67	0.300811
2998.05	0.300823
2997.42	0.300816
2996.8	0.300764
2996.17	0.300771
2995.55	0.300781
2994.92	0.300804
2994.3	0.300708
2993.67	0.300673
2993.05	0.300659
2992.42	0.300601
2991.8	0.300566
2991.17	0.300574
2990.55	0.30051
2989.92	0.300454
2989.29	0.300318
2988.67	0.300282
2988.04	0.300197
2987.42	0.300171
2986.79	0.300193
2986.16	0.300255
2985.54	0.300247
2984.91	0.300277
2984.28	0.300222
2983.66	0.300233
2983.03	0.300157
2982.4	0.300094
2981.78	0.300051
2981.15	0.299991
2980.52	0.299873
2979.9	0.299874
2979.27	0.299815
2978.64	0.299713
2978.01	0.29962
2977.39	0.299585
2976.76	0.299604
2976.13	0.299502
2975.5	0.299451
2974.87	0.299519
2974.25	0.299475
2973.62	0.299372
2972.99	0.299353
2972.36	0.299255
2971.73	0.299124
2971.1	0.298985
2970.47	0.298944
2969.85	0.298958
2969.22	0.298987
2968.59	0.299035
2967.96	0.299032
2967.33	0.299014
2966.7	0.29888
2966.07	0.298797
2965.44	0.298749
2964.81	0.298659
2964.18	0.298657
2963.55	0.298595
2962.92	0.298551
2962.29	0.298571
2961.66	0.298586
2961.03	0.298646
2960.4	0.298663
2959.77	0.298617
2959.14	0.298636
2958.51	0.298515
2957.88	0.298476
2957.25	0.298396
2956.62	0.298466
2955.99	0.298559
2955.36	0.298579
2954.73	0.298587
2954.09	0.2986
2953.46	0.29853
2952.83	0.298429
2952.2	0.298322
2951.57	0.298309
2950.94	0.298266
2950.3	0.298171
2949.67	0.298205
2949.04	0.298272
2948.41	0.298357
2947.78	0.298303
2947.14	0.298205
2946.51	0.298174
2945.88	0.298148
2945.25	0.29815
2944.61	0.298272
2943.98	0.298315
2943.35	0.298383
2942.71	0.298271
2942.08	0.298102
2941.45	0.298094
2940.82	0.298068
2940.18	0.297913
2939.55	0.297821
2938.91	0.297752
2938.28	0.297682
2937.65	0.297567
2937.01	0.297546
2936.38	0.297613
2935.75	0.297592
2935.11	0.297433
2934.48	0.297423
2933.84	0.297372
2933.21	0.297351
2932.57	0.297253
2931.94	0.297165
2931.3	0.297115
2930.67	0.297079
2930.03	0.296992
2929.4	0.29697
2928.76	0.296948
2928.13	0.297015
2927.49	0.296956
2926.86	0.29674
2926.22	0.296711
2925.59	0.296667
2924.95	0.296671
2924.32	0.296682
2923.68	0.296689
2923.04	0.29669
2922.41	0.296587
2921.77	0.296429
2921.13	0.296464
2920.5	0.296416
2919.86	0.296327
2919.23	0.296223
2918.59	0.296277
2917.95	0.296316
2917.31	0.296206
2916.68	0.296166
2916.04	0.296125
2915.4	0.296019
2914.77	0.295912
2914.13	0.295786
2913.49	0.295863
2912.85	0.29592
2912.22	0.295828
2911.58	0.295749
2910.94	0.295628
2910.3	0.295613
2909.66	0.295634
2909.03	0.295574
2908.39	0.295636
2907.75	0.295739
2907.11	0.295721
2906.47	0.295707
2905.83	0.295554
2905.19	0.295583
2904.56	0.295464
2903.92	0.295443
2903.28	0.29541
2902.64	0.29539
2902	0.29526
2901.36	0.295197
2900.72	0.295073
2900.08	0.295097
2899.44	0.295062
2898.8	0.295084
2898.16	0.294985
2897.52	0.294985
2896.88	0.294879
2896.24	0.294904
2895.6	0.29492
2894.96	0.294937
2894.32	0.294938
2893.68	0.29492
2893.04	0.294842
2892.4	0.294936
2891.76	0.294981
2891.12	0.29492
2890.48	0.294754
2889.83	0.294582
2889.19	0.294359
2888.55	0.294256
2887.91	0.294178
2887.27	0.294402
2886.63	0.294493
2885.98	0.29457
2885.34	0.294626
2884.7	0.294618
2884.06	0.294523
2883.42	0.294348
2882.77	0.294147
2882.13	0.294167
2881.49	0.294033
2880.85	0.293967
2880.2	0.293994
2879.56	0.293996
2878.92	0.293986
2878.28	0.293976
2877.63	0.293946
2876.99	0.29406
2876.35	0.294065
2875.7	0.29399
2875.06	0.293945
2874.42	0.293794
2873.77	0.293642
2873.13	0.29361
2872.48	0.293597
2871.84	0.293589
2871.2	0.293657
2870.55	0.293691
2869.91	0.293683
2869.26	0.29348
2868.62	0.293434
2867.98	0.293413
2867.33	0.293454
2866.69	0.29342
2866.04	0.293587
2865.4	0.293575
2864.75	0.293526
2864.11	0.293453
2863.46	0.29351
2862.82	0.29342
2862.17	0.293336
2861.52	0.293254
2860.88	0.293286
2860.23	0.293179
2859.59	0.29303
2858.94	0.293057
2858.29	0.29315
2857.65	0.293157
2857	0.293159
2856.36	0.293113
2855.71	0.293135
2855.06	0.293065
2854.42	0.292891
2853.77	0.292791
2853.12	0.292815
2852.48	0.292831
2851.83	0.292928
2851.18	0.293033
2850.53	0.29308
2849.89	0.293147
2849.24	0.293107
2848.59	0.29296
2847.94	0.29282
2847.3	0.292774
2846.65	0.292662
2846	0.292505
2845.35	0.292417
2844.7	0.292366
2844.06	0.292316
2843.41	0.292263
2842.76	0.292199
2842.11	0.292384
2841.46	0.292441
2840.81	0.29249
2840.16	0.292523
2839.52	0.292444
2838.87	0.292347
2838.22	0.292111
2837.57	0.291826
2836.92	0.291933
2836.27	0.291988
2835.62	0.292041
2834.97	0.29205
2834.32	0.291996
2833.67	0.291906
2833.02	0.291751
2832.37	0.291624
2831.72	0.291715
2831.07	0.291657
2830.42	0.291711
2829.77	0.291756
2829.12	0.291667
2828.47	0.29157
2827.82	0.291528
2827.17	0.291412
2826.51	0.291305
2825.86	0.291158
2825.21	0.291166
2824.56	0.291243
2823.91	0.291307
2823.26	0.291331
2822.61	0.291366
2821.96	0.291317
2821.3	0.29123
2820.65	0.29118
2820	0.291203
2819.35	0.291201
2818.7	0.29125
2818.04	0.291095
2817.39	0.290945
2816.74	0.290798
2816.09	0.290703
2815.43	0.290851
2814.78	0.290968
2814.13	0.291042
2813.47	0.291099
2812.82	0.290959
2812.17	0.290821
2811.51	0.290654
2810.86	0.290597
2810.21	0.290633
2809.55	0.290655
2808.9	0.290711
2808.25	0.290724
2807.59	0.290696
2806.94	0.290768
2806.28	0.290738
2805.63	0.290627
2804.98	0.290433
2804.32	0.290393
2803.67	0.290276
2803.01	0.290192
2802.36	0.2902
2801.7	0.290368
2801.05	0.290378
2800.39	0.29032
2799.74	0.290268
2799.08	0.290299
2798.43	0.290198
2797.77	0.290119
2797.12	0.290157
2796.46	0.290118
2795.8	0.290036
2795.15	0.289975
2794.49	0.289972
2793.84	0.28997
2793.18	0.289907
2792.52	0.28995
2791.87	0.290059
2791.21	0.290012
2790.55	0.289994
2789.9	0.289977
2789.24	0.28983
2788.58	0.289777
2787.93	0.289734
2787.27	0.289794
2786.61	0.289803
2785.95	0.289808
2785.3	0.289796
2784.64	0.289823
2783.98	0.289611
2783.32	0.289595
2782.67	0.28955
2782.01	0.289516
2781.35	0.289547
2780.69	0.289664
2780.03	0.28964
2779.38	0.289678
2778.72	0.289575
2778.06	0.28943
2777.4	0.289238
2776.74	0.289186
2776.08	0.289168
2775.42	0.289291
2774.76	0.289282
2774.11	0.289463
2773.45	0.289458
2772.79	0.28935
2772.13	0.289292
2771.47	0.289299
2770.81	0.289235
2770.15	0.28918
2769.49	0.289145
2768.83	0.28917
2768.17	0.289049
2767.51	0.289014
2766.85	0.289027
2766.19	0.289003
2765.53	0.289118
2764.87	0.289147
2764.21	0.289293
2763.55	0.289302
2762.88	0.289301
2762.22	0.289193
2761.56	0.289115
2760.9	0.288964
2760.24	0.289088
2759.58	0.289036
2758.92	0.28908
2758.26	0.289091
2757.59	0.289071
2756.93	0.289133
2756.27	0.289214
2755.61	0.28909
2754.95	0.289109
2754.28	0.288902
2753.62	0.288819
2752.96	0.288667
2752.3	0.288624
2751.63	0.2887
2750.97	0.288736
2750.31	0.288657
2749.64	0.288624
2748.98	0.288612
2748.32	0.288527
2747.65	0.288414
2746.99	0.288433
2746.33	0.288326
2745.66	0.288348
2745	0.288288
2744.34	0.288315
2743.67	0.288351
2743.01	0.288286
2742.34	0.288217
2741.68	0.288131
2741.02	0.287996
2740.35	0.287954
2739.69	0.287872
2739.02	0.287812
2738.36	0.287747
2737.69	0.287781
2737.03	0.287666
2736.36	0.287616
2735.7	0.287563
2735.03	0.287547
2734.37	0.28747
2733.7	0.287395
2733.04	0.287521
2732.37	0.287704
2731.7	0.28765
2731.04	0.287573
2730.37	0.287433
2729.71	0.287219
2729.04	0.28704
2728.37	0.287202
2727.71	0.287472
2727.04	0.28771
2726.37	0.287666
2725.71	0.287576
2725.04	0.287479
2724.37	0.287192
2723.71	0.287066
2723.04	0.287074
2722.37	0.287026
2721.71	0.287055
2721.04	0.286945
2720.37	0.286923
2719.7	0.286982
2719.03	0.286968
2718.37	0.28699
2717.7	0.286955
2717.03	0.286804
2716.36	0.28674
2715.69	0.286648
2715.03	0.286692
2714.36	0.286844
2713.69	0.287058
2713.02	0.28717
2712.35	0.287123
2711.68	0.286851
2711.01	0.286671
2710.34	0.286481
2709.67	0.286569
2709.01	0.286587
2708.34	0.286622
2707.67	0.286626
2707	0.286535
2706.33	0.286504
2705.66	0.286604
2704.99	0.286648
2704.32	0.286759
2703.65	0.286627
2702.98	0.286482
2702.31	0.286465
2701.64	0.286315
2700.96	0.286302
2700.29	0.286368
2699.62	0.286321
2698.95	0.286175
2698.28	0.286082
2697.61	0.286048
2696.94	0.286199
2696.27	0.286166
2695.6	0.286254
2694.92	0.286376
2694.25	0.286346
2693.58	0.286205
2692.91	0.286202
2692.24	0.286105
2691.57	0.286215
2690.89	0.285981
2690.22	0.285919
2689.55	0.285958
2688.88	0.285834
2688.2	0.285833
2687.53	0.285855
2686.86	0.285856
2686.18	0.286021
2685.51	0.285916
2684.84	0.285888
2684.17	0.285937
2683.49	0.285799
2682.82	0.28576
2682.14	0.285846
2681.47	0.285821
2680.8	0.285849
2680.12	0.285823
2679.45	0.285719
2678.78	0.285663
2678.1	0.285753
2677.43	0.285775
2676.75	0.285931
2676.08	0.285931
2675.4	0.285926
2674.73	0.28592
2674.05	0.285879
2673.38	0.285752
2672.7	0.285746
2672.03	0.285483
2671.35	0.285338
2670.68	0.285306
2670	0.285176
2669.33	0.285297
2668.65	0.285517
2667.98	0.285569
2667.3	0.285625
2666.62	0.285533
2665.95	0.285594
2665.27	0.285513
2664.59	0.285486
2663.92	0.285598
2663.24	0.285638
2662.56	0.285538
2661.89	0.285582
2661.21	0.285569
2660.53	0.285536
2659.86	0.285507
2659.18	0.285584
2658.5	0.285657
2657.83	0.28556
2657.15	0.285641
2656.47	0.285665
2655.79	0.285662
2655.11	0.28562
2654.44	0.285721
2653.76	0.285732
2653.08	0.285636
2652.4	0.285639
2651.72	0.285615
2651.05	0.285414
2650.37	0.285259
2649.69	0.285243
2649.01	0.285343
2648.33	0.285419
2647.65	0.285571
2646.97	0.285681
2646.29	0.285593
2645.61	0.285461
2644.93	0.285343
2644.25	0.285256
2643.57	0.28532
2642.9	0.285476
2642.22	0.285726
2641.54	0.285764
2640.86	0.285891
2640.18	0.285887
2639.49	0.285971
2638.81	0.285831
2638.13	0.285664
2637.45	0.285345
2636.77	0.28501
2636.09	0.284762
2635.41	0.28469
2634.73	0.284789
2634.05	0.284964
2633.37	0.285174
2632.69	0.285256
2632	0.285211
2631.32	0.285142
2630.64	0.28503
2629.96	0.284843
2629.28	0.284683
2628.6	0.284473
2627.91	0.284567
2627.23	0.284646
2626.55	0.284726
2625.87	0.284696
2625.18	0.284627
2624.5	0.284316
2623.82	0.284094
2623.14	0.283846
2622.45	0.283886
2621.77	0.283982
2621.09	0.283983
2620.4	0.283965
2619.72	0.284021
2619.04	0.284142
2618.35	0.28431
2617.67	0.284258
2616.98	0.284362
2616.3	0.284364
2615.62	0.284115
2614.93	0.284091
2614.25	0.28402
2613.56	0.283946
2612.88	0.283923
2612.19	0.283841
2611.51	0.283999
2610.83	0.284058
2610.14	0.284005
2609.46	0.284094
2608.77	0.283968
2608.08	0.283841
2607.4	0.283941
2606.71	0.284023
2606.03	0.284013
2605.34	0.284023
2604.66	0.283952
2603.97	0.283721
2603.28	0.283609
2602.6	0.283597
2601.91	0.283744
2601.23	0.283767
2600.54	0.28374
2599.85	0.283723
2599.17	0.28357
2598.48	0.28345
2597.79	0.283546
2597.11	0.28365
2596.42	0.283744
2595.73	0.283797
2595.04	0.283886
2594.36	0.283817
2593.67	0.283953
2592.98	0.284014
2592.29	0.284025
2591.61	0.284023
2590.92	0.283851
2590.23	0.283736
2589.54	0.283631
2588.85	0.283611
2588.16	0.283779
2587.48	0.283624
2586.79	0.283408
2586.1	0.283428
2585.41	0.283464
2584.72	0.28377
2584.03	0.284059
2583.34	0.284206
2582.65	0.284127
2581.96	0.283896
2581.27	0.283653
2580.58	0.283578
2579.9	0.283408
2579.21	0.283577
2578.52	0.283693
2577.83	0.283792
2577.14	0.283776
2576.44	0.283703
2575.75	0.283619
2575.06	0.283589
2574.37	0.283433
2573.68	0.283578
2572.99	0.283567
2572.3	0.283897
2571.61	0.283876
2570.92	0.2838
2570.23	0.283792
2569.54	0.283854
2568.84	0.283989
2568.15	0.284046
2567.46	0.283889
2566.77	0.284047
2566.08	0.283691
2565.39	0.283443
2564.69	0.283291
2564	0.283332
2563.31	0.2835
2562.62	0.283553
2561.92	0.283733
2561.23	0.283849
2560.54	0.283765
2559.85	0.283651
2559.15	0.283627
2558.46	0.283655
2557.77	0.2836
2557.07	0.283599
2556.38	0.283554
2555.69	0.283583
2554.99	0.283608
2554.3	0.28369
2553.6	0.283823
2552.91	0.284039
2552.22	0.28409
2551.52	0.284125
2550.83	0.284176
2550.13	0.28414
2549.44	0.284106
2548.74	0.284175
2548.05	0.28415
2547.35	0.28437
2546.66	0.284523
2545.96	0.284711
2545.27	0.284939
2544.57	0.284959
2543.88	0.285163
2543.18	0.285309
2542.49	0.285302
2541.79	0.285519
2541.1	0.28568
2540.4	0.285732
2539.7	0.285828
2539.01	0.285894
2538.31	0.286016
2537.61	0.286069
2536.92	0.286169
2536.22	0.286299
2535.52	0.286371
2534.83	0.286373
2534.13	0.286584
2533.43	0.286823
2532.74	0.287152
2532.04	0.287372
2531.34	0.287452
2530.64	0.287423
2529.95	0.287317
2529.25	0.287272
2528.55	0.287199
2527.85	0.28713
2527.15	0.287133
2526.46	0.287106
2525.76	0.287055
2525.06	0.287225
2524.36	0.28737
2523.66	0.287644
2522.96	0.287538
2522.26	0.287423
2521.57	0.287335
2520.87	0.2872
2520.17	0.287258
2519.47	0.287223
2518.77	0.287174
2518.07	0.287067
2517.37	0.286957
2516.67	0.286927
2515.97	0.286775
2515.27	0.286694
2514.57	0.286623
2513.87	0.286355
2513.17	0.286507
2512.47	0.28661
2511.77	0.286804
2511.07	0.286933
2510.37	0.286889
2509.66	0.28679
2508.96	0.286492
2508.26	0.286177
2507.56	0.286054
2506.86	0.285869
2506.16	0.285739
2505.46	0.285635
2504.76	0.285489
2504.05	0.285218
2503.35	0.284886
2502.65	0.2847
2501.95	0.284623
2501.25	0.284658
2500.54	0.284541
2499.84	0.284484
2499.14	0.284373
2498.44	0.284194
2497.73	0.283782
2497.03	0.283512
2496.33	0.283414
2495.62	0.283331
2494.92	0.283153
2494.22	0.28324
2493.51	0.283293
2492.81	0.283458
2492.11	0.283403
2491.4	0.283321
2490.7	0.283296
2489.99	0.283323
2489.29	0.28319
2488.59	0.283243
2487.88	0.283165
2487.18	0.283112
2486.47	0.28318
2485.77	0.282984
2485.06	0.282818
2484.36	0.282756
2483.65	0.282575
2482.95	0.282853
2482.24	0.282727
2481.54	0.282686
2480.83	0.282714
2480.13	0.282298
2479.42	0.282357
2478.71	0.282353
2478.01	0.282418
2477.3	0.282502
2476.6	0.282486
2475.89	0.282526
2475.18	0.282421
2474.48	0.282433
2473.77	0.28271
2473.06	0.282683
2472.36	0.282495
2471.65	0.282271
2470.94	0.282271
2470.24	0.282087
2469.53	0.281916
2468.82	0.281974
2468.11	0.281939
2467.41	0.282041
2466.7	0.281947
2465.99	0.282158
2465.28	0.282108
2464.57	0.282078
2463.87	0.281831
2463.16	0.281713
2462.45	0.281475
2461.74	0.281555
2461.03	0.281394
2460.32	0.28155
2459.61	0.281407
2458.9	0.281571
2458.2	0.281511
2457.49	0.281612
2456.78	0.281471
2456.07	0.281555
2455.36	0.281462
2454.65	0.281684
2453.94	0.281585
2453.23	0.281693
2452.52	0.281604
2451.81	0.28153
2451.1	0.281456
2450.39	0.28145
2449.68	0.2815
2448.97	0.281696
2448.26	0.281713
2447.55	0.281799
2446.83	0.281593
2446.12	0.281547
2445.41	0.281346
2444.7	0.28146
2443.99	0.281333
2443.28	0.28137
2442.57	0.281373
2441.85	0.28117
2441.14	0.281052
2440.43	0.281268
2439.72	0.281412
2439.01	0.281731
2438.29	0.281735
2437.58	0.281887
2436.87	0.28174
2436.16	0.2814
2435.44	0.281299
2434.73	0.281428
2434.02	0.281447
2433.3	0.281356
2432.59	0.281478
2431.88	0.281546
2431.16	0.281342
2430.45	0.281293
2429.74	0.281336
2429.02	0.281353
2428.31	0.281386
2427.6	0.281547
2426.88	0.281523
2426.17	0.281366
2425.45	0.281194
2424.74	0.281345
2424.02	0.2815
2423.31	0.281538
2422.59	0.281742
2421.88	0.281586
2421.16	0.281334
2420.45	0.281076
2419.73	0.281003
2419.02	0.281057
2418.3	0.281022
2417.59	0.281219
2416.87	0.281252
2416.16	0.281001
2415.44	0.281037
2414.72	0.281163
2414.01	0.281214
2413.29	0.28128
2412.57	0.281323
2411.86	0.28151
2411.14	0.281524
2410.42	0.28139
2409.71	0.281474
2408.99	0.281532
2408.27	0.281468
2407.56	0.281506
2406.84	0.281304
2406.12	0.281138
2405.4	0.281236
2404.69	0.281143
2403.97	0.281215
2403.25	0.281269
2402.53	0.281342
2401.81	0.281391
2401.1	0.281237
2400.38	0.281078
2399.66	0.281236
2398.94	0.28122
2398.22	0.281282
2397.5	0.281633
2396.78	0.281721
2396.06	0.281721
2395.35	0.281674
2394.63	0.281524
2393.91	0.281673
2393.19	0.281478
2392.47	0.281283
2391.75	0.281381
2391.03	0.281384
2390.31	0.281326
2389.59	0.281326
2388.87	0.281397
2388.15	0.281522
2387.43	0.281355
2386.71	0.281336
2385.98	0.281297
2385.26	0.28152
2384.54	0.281553
2383.82	0.281518
2383.1	0.281568
2382.38	0.281627
2381.66	0.281494
2380.94	0.281386
2380.21	0.281225
2379.49	0.281427
2378.77	0.281599
2378.05	0.281935
2377.33	0.282204
2376.6	0.282252
2375.88	0.282279
2375.16	0.282184
2374.44	0.28214
2373.71	0.282208
2372.99	0.282201
2372.27	0.282196
2371.55	0.282219
2370.82	0.281981
2370.1	0.282023
2369.38	0.282034
2368.65	0.282179
2367.93	0.282316
2367.21	0.282167
2366.48	0.281946
2365.76	0.281969
2365.03	0.281747
2364.31	0.281685
2363.58	0.281566
2362.86	0.281721
2362.14	0.281805
2361.41	0.281673
2360.69	0.281663
2359.96	0.281711
2359.24	0.281826
2358.51	0.281786
2357.79	0.28176
2357.06	0.282012
2356.33	0.282146
2355.61	0.282117
2354.88	0.282222
2354.16	0.282333
2353.43	0.282275
2352.71	0.282086
2351.98	0.282201
2351.25	0.282198
2350.53	0.282116
2349.8	0.281835
2349.07	0.281452
2348.35	0.281347
2347.62	0.281231
2346.89	0.281226
2346.17	0.281598
2345.44	0.281939
2344.71	0.282213
2343.98	0.282071
2343.26	0.281838
2342.53	0.281708
2341.8	0.281433
2341.07	0.281192
2340.34	0.281294
2339.62	0.281573
2338.89	0.281872
2338.16	0.281985
2337.43	0.281923
2336.7	0.281986
2335.97	0.281832
2335.24	0.281801
2334.52	0.281973
2333.79	0.282123
2333.06	0.282465
2332.33	0.282707
2331.6	0.282633
2330.87	0.283055
2330.14	0.283024
2329.41	0.283091
2328.68	0.283084
2327.95	0.283143
2327.22	0.283204
2326.49	0.283081
2325.76	0.282969
2325.03	0.283252
2324.3	0.283178
2323.57	0.283322
2322.83	0.283327
2322.1	0.283377
2321.37	0.283453
2320.64	0.283544
2319.91	0.283778
2319.18	0.284144
2318.45	0.284575
2317.71	0.284819
2316.98	0.284713
2316.25	0.284393
2315.52	0.284161
2314.79	0.283959
2314.05	0.283805
2313.32	0.283721
2312.59	0.283926
2311.86	0.284188
2311.12	0.284362
2310.39	0.284216
2309.66	0.283867
2308.92	0.283729
2308.19	0.283578
2307.46	0.283255
2306.72	0.282986
2305.99	0.283134
2305.26	0.283041
2304.52	0.282782
2303.79	0.282452
2303.05	0.282447
2302.32	0.282394
2301.59	0.282218
2300.85	0.282196
2300.12	0.282444
2299.38	0.282508
2298.65	0.282441
2297.91	0.282181
2297.18	0.282046
2296.44	0.281843
2295.71	0.281764
2294.97	0.281759
2294.24	0.282013
2293.5	0.282219
2292.76	0.282235
2292.03	0.282114
2291.29	0.281887
2290.56	0.281776
2289.82	0.281887
2289.08	0.281853
2288.35	0.282037
2287.61	0.282125
2286.87	0.28216
2286.14	0.282085
2285.4	0.281774
2284.66	0.281831
2283.93	0.281871
2283.19	0.281667
2282.45	0.281627
2281.71	0.281683
2280.98	0.282023
2280.24	0.282227
2279.5	0.282238
2278.76	0.282324
2278.02	0.282122
2277.29	0.281698
2276.55	0.281686
2275.81	0.281454
2275.07	0.281632
2274.33	0.281746
2273.59	0.281825
2272.85	0.281841
2272.11	0.281899
2271.37	0.28162
2270.64	0.281797
2269.9	0.281587
2269.16	0.281859
2268.42	0.282365
2267.68	0.282459
2266.94	0.282419
2266.2	0.282296
2265.46	0.282009
2264.72	0.282038
2263.98	0.281914
2263.23	0.282037
2262.49	0.282323
2261.75	0.282411
2261.01	0.282324
2260.27	0.28235
2259.53	0.28239
2258.79	0.282504
2258.05	0.28227
2257.31	0.282312
2256.56	0.28218
2255.82	0.282112
2255.08	0.281787
2254.34	0.281784
2253.6	0.281621
2252.85	0.281488
2252.11	0.281578
2251.37	0.281936
2250.63	0.282139
2249.88	0.282191
2249.14	0.282043
2248.4	0.281896
2247.65	0.281617
2246.91	0.281407
2246.17	0.281631
2245.42	0.281884
2244.68	0.282193
2243.94	0.282229
2243.19	0.282191
2242.45	0.282064
2241.71	0.281817
2240.96	0.281706
2240.22	0.281887
2239.47	0.282154
2238.73	0.282521
2237.98	0.28261
2237.24	0.282749
2236.49	0.282897
2235.75	0.28277
2235	0.282741
2234.26	0.282748
2233.51	0.28288
2232.77	0.282931
2232.02	0.282704
2231.28	0.282561
2230.53	0.282627
2229.78	0.282618
2229.04	0.282686
2228.29	0.282798
2227.54	0.28308
2226.8	0.283068
2226.05	0.282965
2225.3	0.282981
2224.56	0.282911
2223.81	0.282873
2223.06	0.283022
2222.32	0.283214
2221.57	0.283454
2220.82	0.283469
2220.07	0.283528
2219.33	0.283376
2218.58	0.283065
2217.83	0.282974
2217.08	0.282977
2216.33	0.283208
2215.59	0.283437
2214.84	0.283779
2214.09	0.284028
2213.34	0.283875
2212.59	0.283799
2211.84	0.283972
2211.09	0.283771
2210.34	0.283928
2209.59	0.283785
2208.84	0.283841
2208.09	0.283817
2207.35	0.283994
2206.6	0.284171
2205.85	0.284651
2205.1	0.284682
2204.35	0.284927
2203.59	0.284779
2202.84	0.284662
2202.09	0.284584
2201.34	0.284591
2200.59	0.284444
2199.84	0.28434
2199.09	0.284147
2198.34	0.284433
2197.59	0.284555
2196.84	0.284858
2196.09	0.284926
2195.33	0.28498
2194.58	0.284942
2193.83	0.284899
2193.08	0.284837
2192.33	0.284998
2191.57	0.285074
2190.82	0.285215
2190.07	0.285035
2189.32	0.285043
2188.56	0.285159
2187.81	0.285454
2187.06	0.285742
2186.3	0.2859
2185.55	0.286016
2184.8	0.285864
2184.04	0.285665
2183.29	0.285399
2182.54	0.285262
2181.78	0.285099
2181.03	0.285072
2180.27	0.285028
2179.52	0.284968
2178.77	0.28485
2178.01	0.285002
2177.26	0.285196
2176.5	0.285313
2175.75	0.285305
2174.99	0.285255
2174.24	0.284978
2173.48	0.285018
2172.73	0.285008
2171.97	0.284961
2171.22	0.285061
2170.46	0.285081
2169.7	0.285231
2168.95	0.28538
2168.19	0.285212
2167.44	0.285351
2166.68	0.285381
2165.92	0.285263
2165.17	0.285229
2164.41	0.285225
2163.65	0.285499
2162.9	0.285521
2162.14	0.285497
2161.38	0.285464
2160.62	0.285418
2159.87	0.285586
2159.11	0.285815
2158.35	0.286121
2157.59	0.286432
2156.83	0.286202
2156.08	0.286114
2155.32	0.285814
2154.56	0.285797
2153.8	0.285767
2153.04	0.286057
2152.28	0.286257
2151.53	0.286396
2150.77	0.286217
2150.01	0.286045
2149.25	0.285849
2148.49	0.286101
2147.73	0.286115
2146.97	0.286221
2146.21	0.286157
2145.45	0.28623
2144.69	0.285881
2143.93	0.285772
2143.17	0.28573
2142.41	0.285901
2141.65	0.285999
2140.89	0.28601
2140.13	0.28598
2139.37	0.285999
2138.61	0.285554
2137.85	0.285368
2137.08	0.285415
2136.32	0.285361
2135.56	0.285373
2134.8	0.285397
2134.04	0.285277
2133.28	0.285136
2132.51	0.28484
2131.75	0.284841
2130.99	0.28505
2130.23	0.285103
2129.47	0.285569
2128.7	0.285824
2127.94	0.285796
2127.18	0.285862
2126.41	0.286101
2125.65	0.286225
2124.89	0.286313
2124.12	0.28648
2123.36	0.28661
2122.6	0.286452
2121.83	0.286094
2121.07	0.285811
2120.31	0.285763
2119.54	0.285641
2118.78	0.285647
2118.01	0.285926
2117.25	0.286176
2116.48	0.286494
2115.72	0.286438
2114.95	0.286538
2114.19	0.286674
2113.42	0.286573
2112.66	0.286427
2111.89	0.286617
2111.13	0.286655
2110.36	0.2866
2109.6	0.286627
2108.83	0.286756
2108.07	0.286695
2107.3	0.286845
2106.53	0.28696
2105.77	0.287004
2105	0.286764
2104.23	0.286642
2103.47	0.286737
2102.7	0.286552
2101.93	0.286504
2101.17	0.286986
2100.4	0.287192
2099.63	0.286989
2098.86	0.286616
2098.1	0.2865
2097.33	0.286389
2096.56	0.286379
2095.79	0.286392
2095.02	0.286874
2094.26	0.287083
2093.49	0.287148
2092.72	0.287212
2091.95	0.287644
2091.18	0.287742
2090.41	0.287685
2089.64	0.287396
2088.87	0.287239
2088.11	0.286853
2087.34	0.286602
2086.57	0.286507
2085.8	0.286767
2085.03	0.286738
2084.26	0.286675
2083.49	0.287128
2082.72	0.287211
2081.95	0.28712
2081.18	0.287034
2080.41	0.286839
2079.63	0.286596
2078.86	0.286441
2078.09	0.286634
2077.32	0.287169
2076.55	0.287195
2075.78	0.287181
2075.01	0.287247
2074.24	0.287083
2073.47	0.286977
2072.69	0.286939
2071.92	0.287157
2071.15	0.287462
2070.38	0.287326
2069.6	0.287272
2068.83	0.28735
2068.06	0.287418
2067.29	0.287204
2066.51	0.287005
2065.74	0.286892
2064.97	0.286916
2064.19	0.28705
2063.42	0.287098
2062.65	0.287021
2061.87	0.287287
2061.1	0.287169
2060.33	0.287406
2059.55	0.287287
2058.78	0.287326
2058	0.287722
2057.23	0.287584
2056.46	0.287473
2055.68	0.28759
2054.91	0.287193
2054.13	0.287046
2053.36	0.286939
2052.58	0.286766
2051.81	0.286773
2051.03	0.287126
2050.26	0.287486
2049.48	0.287664
2048.7	0.287699
2047.93	0.287812
2047.15	0.288174
2046.38	0.288066
2045.6	0.288177
2044.82	0.288186
2044.05	0.287852
2043.27	0.287827
2042.49	0.287728
2041.72	0.287792
2040.94	0.287865
2040.16	0.288075
2039.38	0.288448
2038.61	0.288378
2037.83	0.288456
2037.05	0.288797
2036.27	0.288694
2035.5	0.288722
2034.72	0.288284
2033.94	0.288489
2033.16	0.28857
2032.38	0.288919
2031.6	0.289466
2030.83	0.28977
2030.05	0.289679
2029.27	0.28925
2028.49	0.288488
2027.71	0.288412
2026.93	0.288059
2026.15	0.288086
2025.37	0.288288
2024.59	0.288394
2023.81	0.288144
2023.03	0.287942
2022.25	0.288089
2021.47	0.288708
2020.69	0.288924
2019.91	0.289203
2019.13	0.289385
2018.35	0.289203
2017.57	0.289066
2016.79	0.28913
2016	0.289517
2015.22	0.289851
2014.44	0.289831
2013.66	0.289963
2012.88	0.289566
2012.1	0.289238
2011.31	0.289452
2010.53	0.289634
2009.75	0.289733
2008.97	0.289783
2008.19	0.289884
2007.4	0.290005
2006.62	0.29016
2005.84	0.290276
2005.05	0.290466
2004.27	0.290665
2003.49	0.29048
2002.7	0.290572
2001.92	0.290386
2001.14	0.290338
2000.35	0.29033
1999.57	0.290382
1998.79	0.290498
1998	0.291006
1997.22	0.291272
1996.43	0.291637
1995.65	0.29143
1994.86	0.29162
1994.08	0.29114
1993.29	0.29105
1992.51	0.290745
1991.72	0.291026
1990.94	0.290985
1990.15	0.290938
1989.37	0.291355
1988.58	0.291707
1987.8	0.291672
1987.01	0.29176
1986.22	0.291542
1985.44	0.291369
1984.65	0.291096
1983.86	0.291027
1983.08	0.291431
1982.29	0.291422
1981.5	0.291675
1980.72	0.291824
1979.93	0.291877
1979.14	0.291727
1978.35	0.291865
1977.57	0.291948
1976.78	0.291935
1975.99	0.292029
1975.2	0.29197
1974.42	0.292191
1973.63	0.292139
1972.84	0.292528
1972.05	0.292679
1971.26	0.29279
1970.47	0.292891
1969.68	0.292927
1968.89	0.29268
1968.11	0.29269
1967.32	0.292437
1966.53	0.292715
1965.74	0.292481
1964.95	0.292418
1964.16	0.292683
1963.37	0.29266
1962.58	0.292888
1961.79	0.292913
1961	0.293095
1960.21	0.293038
1959.42	0.292766
1958.63	0.29273
1957.83	0.292691
1957.04	0.292838
1956.25	0.293165
1955.46	0.293283
1954.67	0.29327
1953.88	0.293207
1953.09	0.293081
1952.3	0.292876
1951.5	0.292807
1950.71	0.292957
1949.92	0.293076
1949.13	0.293292
1948.33	0.293353
1947.54	0.293523
1946.75	0.293538
1945.96	0.293518
1945.16	0.293851
1944.37	0.293571
1943.58	0.293395
1942.78	0.293518
1941.99	0.293711
1941.2	0.293981
1940.4	0.294064
1939.61	0.294419
1938.81	0.294511
1938.02	0.294522
1937.23	0.29459
1936.43	0.294866
1935.64	0.295017
1934.84	0.295041
1934.05	0.294934
1933.25	0.29496
1932.46	0.29494
1931.66	0.295081
1930.87	0.295039
1930.07	0.294967
1929.28	0.295083
1928.48	0.29513
1927.68	0.295326
1926.89	0.295468
1926.09	0.295921
1925.3	0.296051
1924.5	0.295777
1923.7	0.295552
1922.91	0.295692
1922.11	0.295671
1921.31	0.295498
1920.52	0.295646
1919.72	0.296022
1918.92	0.296158
1918.12	0.295942
1917.33	0.295978
1916.53	0.295758
1915.73	0.295588
1914.93	0.295102
1914.13	0.295262
1913.34	0.295432
1912.54	0.295469
1911.74	0.295635
1910.94	0.295785
1910.14	0.295748
1909.34	0.295956
1908.54	0.295796
1907.74	0.29598
1906.94	0.296007
1906.14	0.295614
1905.35	0.295631
1904.55	0.295637
1903.75	0.29597
1902.95	0.296289
1902.15	0.296747
1901.35	0.296781
1900.54	0.296751
1899.74	0.296357
1898.94	0.29637
1898.14	0.296231
1897.34	0.296186
1896.54	0.296347
1895.74	0.296764
1894.94	0.297007
1894.14	0.297267
1893.33	0.297537
1892.53	0.297705
1891.73	0.297659
1890.93	0.297502
1890.13	0.29753
1889.32	0.297606
1888.52	0.29778
1887.72	0.297562
1886.92	0.297736
1886.11	0.297387
1885.31	0.297108
1884.51	0.297111
1883.7	0.297446
1882.9	0.297707
1882.1	0.298219
1881.29	0.298708
1880.49	0.299085
1879.69	0.298841
1878.88	0.298667
1878.08	0.298786
1877.27	0.298714
1876.47	0.298294
1875.66	0.298416
1874.86	0.298511
1874.06	0.298483
1873.25	0.298629
1872.45	0.298968
1871.64	0.299367
1870.83	0.299355
1870.03	0.299247
1869.22	0.299182
1868.42	0.299256
1867.61	0.299217
1866.81	0.299167
1866	0.2996
1865.19	0.299672
1864.39	0.299755
1863.58	0.299901
1862.77	0.299737
1861.97	0.299939
1861.16	0.29957
1860.35	0.299695
1859.54	0.300066
1858.74	0.299954
1857.93	0.300213
1857.12	0.300525
1856.31	0.300742
1855.51	0.301079
1854.7	0.300929
1853.89	0.30128
1853.08	0.30086
1852.27	0.30058
1851.46	0.300426
1850.66	0.300559
1849.85	0.30094
1849.04	0.301292
1848.23	0.301914
1847.42	0.302206
1846.61	0.302157
1845.8	0.302285
1844.99	0.301967
1844.18	0.301998
1843.37	0.301678
1842.56	0.30144
1841.75	0.301508
1840.94	0.301261
1840.13	0.301579
1839.32	0.302027
1838.51	0.302486
1837.7	0.303027
1836.89	0.303199
1836.07	0.303288
1835.26	0.30325
1834.45	0.302908
1833.64	0.303206
1832.83	0.303656
1832.02	0.304288
1831.2	0.30508
1830.39	0.305674
1829.58	0.30593
1828.77	0.306003
1827.95	0.305789
1827.14	0.306153
1826.33	0.306368
1825.52	0.306619
1824.7	0.307348
1823.89	0.307853
1823.08	0.308413
1822.26	0.308838
1821.45	0.309584
1820.63	0.310076
1819.82	0.310442
1819.01	0.310499
1818.19	0.31065
1817.38	0.310611
1816.56	0.310905
1815.75	0.310761
1814.93	0.31081
1814.12	0.310477
1813.3	0.310186
1812.49	0.309818
1811.67	0.309369
1810.86	0.308921
1810.04	0.308669
1809.23	0.307575
1808.41	0.306712
1807.59	0.30632
1806.78	0.305733
1805.96	0.305919
1805.15	0.306151
1804.33	0.306298
1803.51	0.305928
1802.7	0.3054
1801.88	0.30477
1801.06	0.304225
1800.24	0.304014
1799.43	0.304394
1798.61	0.304476
1797.79	0.304496
1796.97	0.304306
1796.16	0.304596
1795.34	0.304527
1794.52	0.304145
1793.7	0.304042
1792.88	0.304231
1792.06	0.303767
1791.24	0.303512
1790.43	0.303607
1789.61	0.304076
1788.79	0.304203
1787.97	0.304352
1787.15	0.304536
1786.33	0.304618
1785.51	0.3045
1784.69	0.304366
1783.87	0.304627
1783.05	0.304776
1782.23	0.304879
1781.41	0.304937
1780.59	0.304582
1779.77	0.304064
1778.95	0.304034
1778.13	0.304151
1777.3	0.304654
1776.48	0.305076
1775.66	0.30546
1774.84	0.305407
1774.02	0.305054
1773.2	0.304778
1772.37	0.304406
1771.55	0.304633
1770.73	0.305055
1769.91	0.305399
1769.08	0.305577
1768.26	0.305842
1767.44	0.306075
1766.62	0.305858
1765.79	0.305545
1764.97	0.305303
1764.15	0.305219
1763.32	0.305121
1762.5	0.305013
1761.68	0.305015
1760.85	0.305287
1760.03	0.305467
1759.2	0.305654
1758.38	0.305516
1757.55	0.305724
1756.73	0.305867
1755.91	0.306276
1755.08	0.30589
1754.26	0.306006
1753.43	0.305899
1752.6	0.305814
1751.78	0.305758
1750.95	0.306041
1750.13	0.306396
1749.3	0.306949
1748.48	0.307005
1747.65	0.30678
1746.82	0.306496
1746	0.306461
1745.17	0.306356
1744.34	0.30628
1743.52	0.306495
1742.69	0.306533
1741.86	0.306783
1741.04	0.306469
1740.21	0.306549
1739.38	0.306538
1738.55	0.306421
1737.72	0.30638
1736.9	0.306581
1736.07	0.30641
1735.24	0.306164
1734.41	0.306223
1733.58	0.306199
1732.75	0.306119
1731.93	0.306165
1731.1	0.306499
1730.27	0.306925
1729.44	0.30755
1728.61	0.307669
1727.78	0.307804
1726.95	0.307387
1726.12	0.306826
1725.29	0.306552
1724.46	0.306725
1723.63	0.306704
1722.8	0.307193
1721.97	0.307406
1721.14	0.307297
1720.31	0.306817
1719.48	0.306876
1718.65	0.307141
1717.81	0.307192
1716.98	0.306981
1716.15	0.30745
1715.32	0.30789
1714.49	0.307808
1713.66	0.307856
1712.82	0.308311
1711.99	0.308445
1711.16	0.30803
1710.33	0.308064
1709.49	0.308396
1708.66	0.308753
1707.83	0.308662
1707	0.308584
1706.16	0.308313
1705.33	0.308213
1704.5	0.308131
1703.66	0.308662
1702.83	0.30915
1701.99	0.309753
1701.16	0.309833
1700.33	0.309692
1699.49	0.309108
1698.66	0.308983
1697.82	0.308763
1696.99	0.309205
1696.15	0.309487
1695.32	0.309783
1694.48	0.310038
1693.65	0.310412
1692.81	0.310214
1691.98	0.310468
1691.14	0.310384
1690.3	0.310647
1689.47	0.31036
1688.63	0.310322
1687.8	0.31031
1686.96	0.310576
1686.12	0.310674
1685.29	0.311096
1684.45	0.311601
1683.61	0.311955
1682.78	0.312187
1681.94	0.312292
1681.1	0.312108
1680.26	0.312343
1679.43	0.312865
1678.59	0.313274
1677.75	0.314148
1676.91	0.314654
1676.07	0.315215
1675.23	0.315441
1674.4	0.315611
1673.56	0.316144
1672.72	0.316907
1671.88	0.31729
1671.04	0.318303
1670.2	0.318738
1669.36	0.319434
1668.52	0.320015
1667.68	0.320425
1666.84	0.320757
1666	0.321108
1665.16	0.321553
1664.32	0.322102
1663.48	0.3225
1662.64	0.323222
1661.8	0.323666
1660.96	0.324164
1660.12	0.324711
1659.28	0.325019
1658.44	0.325251
1657.59	0.325257
1656.75	0.325325
1655.91	0.325089
1655.07	0.325269
1654.23	0.325441
1653.38	0.325657
1652.54	0.325523
1651.7	0.325768
1650.86	0.326292
1650.01	0.326922
1649.17	0.327264
1648.33	0.327878
1647.48	0.327363
1646.64	0.326798
1645.8	0.32624
1644.95	0.326033
1644.11	0.32558
1643.27	0.325531
1642.42	0.325325
1641.58	0.325632
1640.73	0.325514
1639.89	0.325537
1639.04	0.325862
1638.2	0.325972
1637.36	0.325249
1636.51	0.324866
1635.67	0.324575
1634.82	0.324893
1633.97	0.325143
1633.13	0.325157
1632.28	0.325544
1631.44	0.326079
1630.59	0.325522
1629.74	0.325327
1628.9	0.324983
1628.05	0.325104
1627.2	0.325058
1626.36	0.324831
1625.51	0.325251
1624.66	0.325951
1623.82	0.326208
1622.97	0.326379
1622.12	0.326442
1621.27	0.326777
1620.43	0.32689
1619.58	0.326611
1618.73	0.32698
1617.88	0.327284
1617.03	0.327645
1616.19	0.32807
1615.34	0.328264
1614.49	0.328351
1613.64	0.328587
1612.79	0.328897
1611.94	0.329564
1611.09	0.329924
1610.24	0.330452
1609.39	0.331259
1608.54	0.332126
1607.69	0.33268
1606.84	0.333782
1605.99	0.335191
1605.14	0.33637
1604.29	0.337471
1603.44	0.339362
1602.59	0.340951
1601.74	0.343237
1600.89	0.345204
1600.04	0.348185
1599.18	0.350466
1598.33	0.352852
1597.48	0.355583
1596.63	0.358889
1595.78	0.362443
1594.92	0.366495
1594.07	0.371286
1593.22	0.37656
1592.37	0.381459
1591.51	0.387663
1590.66	0.395209
1589.81	0.403972
1588.96	0.414855
1588.1	0.427809
1587.25	0.443966
1586.39	0.46477
1585.54	0.490255
1584.69	0.523106
1583.83	0.563689
1582.98	0.613054
1582.12	0.669915
1581.27	0.732662
1580.42	0.798546
1579.56	0.861427
1578.71	0.915823
1577.85	0.95886
1576.99	0.987472
1576.14	1
1575.28	0.99825
1574.43	0.983816
1573.57	0.96056
1572.72	0.927905
1571.86	0.889666
1571	0.846343
1570.15	0.800122
1569.29	0.750212
1568.43	0.700265
1567.58	0.651869
1566.72	0.606745
1565.86	0.56572
1565.01	0.530138
1564.15	0.499584
1563.29	0.474369
1562.43	0.452592
1561.58	0.434473
1560.72	0.420014
1559.86	0.40687
1559	0.396099
1558.14	0.387645
1557.28	0.381791
1556.42	0.377379
1555.57	0.374474
1554.71	0.372783
1553.85	0.371262
1552.99	0.368891
1552.13	0.366402
1551.27	0.363549
1550.41	0.360931
1549.55	0.358
1548.69	0.355274
1547.83	0.352824
1546.97	0.350105
1546.11	0.347391
1545.25	0.345031
1544.39	0.343057
1543.53	0.340983
1542.66	0.338987
1541.8	0.337224
1540.94	0.335566
1540.08	0.333977
1539.22	0.332842
1538.36	0.331924
1537.49	0.331368
1536.63	0.330352
1535.77	0.329747
1534.91	0.329115
1534.04	0.328145
1533.18	0.327652
1532.32	0.326935
1531.46	0.3267
1530.59	0.326571
1529.73	0.326559
1528.87	0.326704
1528	0.326398
1527.14	0.326226
1526.27	0.325986
1525.41	0.325471
1524.55	0.325482
1523.68	0.325222
1522.82	0.325141
1521.95	0.325233
1521.09	0.325032
1520.22	0.324863
1519.36	0.324471
1518.49	0.324096
1517.63	0.32393
1516.76	0.323661
1515.89	0.323928
1515.03	0.324272
1514.16	0.324387
1513.3	0.324324
1512.43	0.324217
1511.56	0.323963
1510.7	0.323653
1509.83	0.323261
1508.96	0.323196
1508.1	0.32335
1507.23	0.323579
1506.36	0.323663
1505.49	0.32373
1504.63	0.324113
1503.76	0.324406
1502.89	0.324179
1502.02	0.324017
1501.15	0.324204
1500.29	0.324168
1499.42	0.323975
1498.55	0.323953
1497.68	0.324235
1496.81	0.32448
1495.94	0.32455
1495.07	0.324518
1494.2	0.325049
1493.33	0.325186
1492.46	0.325572
1491.59	0.325631
1490.72	0.325393
1489.85	0.325136
1488.98	0.32539
1488.11	0.325807
1487.24	0.3263
1486.37	0.32651
1485.5	0.3267
1484.63	0.326569
1483.76	0.326086
1482.88	0.325938
1482.01	0.326174
1481.14	0.326901
1480.27	0.327691
1479.4	0.328876
1478.53	0.329722
1477.65	0.330405
1476.78	0.330966
1475.91	0.331161
1475.03	0.331104
1474.16	0.330848
1473.29	0.330437
1472.42	0.329891
1471.54	0.329107
1470.67	0.328354
1469.79	0.327722
1468.92	0.327007
1468.05	0.326572
1467.17	0.32613
1466.3	0.325789
1465.42	0.32522
1464.55	0.325033
1463.67	0.324925
1462.8	0.32483
1461.92	0.324997
1461.05	0.324876
1460.17	0.3248
1459.3	0.32478
1458.42	0.324392
1457.55	0.324367
1456.67	0.324507
1455.79	0.324646
1454.92	0.324622
1454.04	0.324578
1453.17	0.324505
1452.29	0.324506
1451.41	0.324473
1450.53	0.324873
1449.66	0.325083
1448.78	0.324999
1447.9	0.325057
1447.02	0.324778
1446.15	0.325001
1445.27	0.325191
1444.39	0.325168
1443.51	0.32504
1442.63	0.324697
1441.76	0.325061
1440.88	0.325777
1440	0.325645
1439.12	0.326232
1438.24	0.326383
1437.36	0.326456
1436.48	0.32615
1435.6	0.325917
1434.72	0.326463
1433.84	0.32653
1432.96	0.326069
1432.08	0.326019
1431.2	0.326286
1430.32	0.326826
1429.44	0.326829
1428.56	0.326779
1427.68	0.327047
1426.8	0.326501
1425.91	0.326087
1425.03	0.325572
1424.15	0.326069
1423.27	0.326224
1422.39	0.326635
1421.51	0.32705
1420.62	0.327477
1419.74	0.327643
1418.86	0.327848
1417.98	0.32795
1417.09	0.328379
1416.21	0.328496
1415.33	0.329176
1414.44	0.328713
1413.56	0.32844
1412.68	0.328514
1411.79	0.328403
1410.91	0.328703
1410.02	0.32878
1409.14	0.329107
1408.26	0.329219
1407.37	0.32879
1406.49	0.328483
1405.6	0.328225
1404.72	0.327964
1403.83	0.32783
1402.95	0.327955
1402.06	0.328236
1401.18	0.328258
1400.29	0.32883
1399.4	0.328762
1398.52	0.32898
1397.63	0.329185
1396.75	0.329605
1395.86	0.330506
1394.97	0.331161
1394.08	0.331679
1393.2	0.332649
1392.31	0.332511
1391.42	0.332883
1390.54	0.332987
1389.65	0.333198
1388.76	0.332959
1387.87	0.332873
1386.98	0.332344
1386.1	0.331921
1385.21	0.331116
1384.32	0.330454
1383.43	0.330252
1382.54	0.329726
1381.65	0.32943
1380.76	0.329319
1379.87	0.328684
1378.98	0.328586
1378.09	0.328416
1377.21	0.328071
1376.32	0.328325
1375.43	0.328454
1374.53	0.328755
1373.64	0.329053
1372.75	0.329251
1371.86	0.32972
1370.97	0.329893
1370.08	0.330387
1369.19	0.330339
1368.3	0.330431
1367.41	0.329889
1366.52	0.329746
1365.62	0.32957
1364.73	0.329452
1363.84	0.329475
1362.95	0.329472
1362.05	0.329545
1361.16	0.329929
1360.27	0.329601
1359.38	0.32948
1358.48	0.329719
1357.59	0.329521
1356.7	0.329417
1355.8	0.329243
1354.91	0.329535
1354.02	0.329807
1353.12	0.329886
1352.23	0.330176
1351.33	0.330566
1350.44	0.330182
1349.54	0.330117
1348.65	0.330096
1347.75	0.32971
1346.86	0.329683
1345.96	0.329617
1345.07	0.329932
1344.17	0.32963
1343.28	0.328805
1342.38	0.328468
1341.49	0.327738
1340.59	0.327341
1339.69	0.327243
1338.8	0.327255
1337.9	0.327837
1337	0.327963
1336.11	0.32776
1335.21	0.327757
1334.31	0.327597
1333.41	0.327583
1332.52	0.327237
1331.62	0.327252
1330.72	0.32763
1329.82	0.32766
1328.92	0.327358
1328.03	0.327268
1327.13	0.32756
1326.23	0.327212
1325.33	0.326854
1324.43	0.326811
1323.53	0.326973
1322.63	0.327036
1321.73	0.327124
1320.83	0.327021
1319.93	0.327104
1319.03	0.326787
1318.13	0.326212
1317.23	0.325948
1316.33	0.325917
1315.43	0.326744
1314.53	0.32691
1313.63	0.326828
1312.73	0.326986
1311.83	0.326765
1310.93	0.326128
1310.03	0.325911
1309.12	0.326015
1308.22	0.326547
1307.32	0.326937
1306.42	0.327562
1305.52	0.328293
1304.61	0.32901
1303.71	0.330342
1302.81	0.332384
1301.9	0.333961
1301	0.334577
1300.1	0.335301
1299.19	0.3355
1298.29	0.335601
1297.39	0.335574
1296.48	0.335752
1295.58	0.336064
1294.68	0.33529
1293.77	0.334175
1292.87	0.333041
1291.96	0.33178
1291.06	0.330494
1290.15	0.329147
1289.25	0.327988
1288.34	0.327138
1287.44	0.32635
1286.53	0.325979
1285.62	0.326061
1284.72	0.326147
1283.81	0.326373
1282.91	0.326577
1282	0.326701
1281.09	0.326837
1280.19	0.326653
1279.28	0.326556
1278.37	0.326867
1277.46	0.327591
1276.56	0.328045
1275.65	0.328657
1274.74	0.32942
1273.83	0.330188
1272.93	0.331039
1272.02	0.33195
1271.11	0.33346
1270.2	0.335078
1269.29	0.336785
1268.38	0.339002
1267.47	0.340813
1266.57	0.342138
1265.66	0.343328
1264.75	0.343845
1263.84	0.344524
1262.93	0.34442
1262.02	0.344854
1261.11	0.345557
1260.2	0.345726
1259.29	0.345749
1258.38	0.345847
1257.47	0.345128
1256.55	0.344624
1255.64	0.343376
1254.73	0.341998
1253.82	0.340789
1252.91	0.33949
1252	0.338134
1251.09	0.336908
1250.17	0.336004
1249.26	0.335232
1248.35	0.334186
1247.44	0.333239
1246.52	0.332754
1245.61	0.331998
1244.7	0.331135
1243.78	0.330582
1242.87	0.330103
1241.96	0.329511
1241.04	0.329188
1240.13	0.329244
1239.22	0.329645
1238.3	0.329232
1237.39	0.329229
1236.47	0.329171
1235.56	0.329003
1234.64	0.329127
1233.73	0.32878
1232.81	0.328256
1231.9	0.328374
1230.98	0.327797
1230.07	0.327717
1229.15	0.327747
1228.24	0.327922
1227.32	0.327976
1226.4	0.328026
1225.49	0.328021
1224.57	0.32867
1223.65	0.32861
1222.74	0.328824
1221.82	0.328583
1220.9	0.328103
1219.99	0.328348
1219.07	0.32831
1218.15	0.328104
1217.23	0.327966
1216.31	0.327763
1215.4	0.327691
1214.48	0.32726
1213.56	0.326818
1212.64	0.32717
1211.72	0.326816
1210.8	0.326921
1209.88	0.327053
1208.96	0.327118
1208.05	0.327539
1207.13	0.328024
1206.21	0.32801
1205.29	0.328539
1204.37	0.328587
1203.45	0.328496
1202.53	0.328538
1201.6	0.328648
1200.68	0.329196
1199.76	0.329879
1198.84	0.330366
1197.92	0.331507
1197	0.332057
1196.08	0.332724
1195.16	0.333905
1194.23	0.335774
1193.31	0.338424
1192.39	0.341787
1191.47	0.346404
1190.54	0.352792
1189.62	0.360622
1188.7	0.370511
1187.78	0.382567
1186.85	0.396064
1185.93	0.410873
1185.01	0.425443
1184.08	0.438464
1183.16	0.449177
1182.23	0.456134
1181.31	0.45828
1180.39	0.456502
1179.46	0.450026
1178.54	0.441204
1177.61	0.429704
1176.69	0.416087
1175.76	0.402207
1174.84	0.387865
1173.91	0.374012
1172.98	0.36237
1172.06	0.352591
1171.13	0.345741
1170.21	0.341029
1169.28	0.337784
1168.35	0.336171
1167.43	0.334635
1166.5	0.334207
1165.57	0.333959
1164.65	0.333733
1163.72	0.333976
1162.79	0.334045
1161.86	0.333851
1160.94	0.333565
1160.01	0.333076
1159.08	0.332876
1158.15	0.332733
1157.22	0.333087
1156.29	0.333681
1155.37	0.333997
1154.44	0.334604
1153.51	0.334811
1152.58	0.335021
1151.65	0.335392
1150.72	0.33591
1149.79	0.336523
1148.86	0.336882
1147.93	0.337587
1147	0.339054
1146.07	0.340417
1145.14	0.341898
1144.21	0.343739
1143.28	0.345541
1142.35	0.347359
1141.41	0.349053
1140.48	0.350985
1139.55	0.353307
1138.62	0.355282
1137.69	0.357016
1136.76	0.358825
1135.82	0.360976
1134.89	0.363355
1133.96	0.365689
1133.03	0.36762
1132.09	0.36971
1131.16	0.371964
1130.23	0.373837
1129.29	0.375921
1128.36	0.37855
1127.43	0.38147
1126.49	0.384143
1125.56	0.386855
1124.62	0.390551
1123.69	0.394971
1122.75	0.398843
1121.82	0.403333
1120.89	0.407632
1119.95	0.412294
1119.01	0.416421
1118.08	0.41997
1117.14	0.423732
1116.21	0.427361
1115.27	0.430019
1114.34	0.432513
1113.4	0.435173
1112.46	0.438301
1111.53	0.441939
1110.59	0.445985
1109.65	0.451457
1108.72	0.457091
1107.78	0.462637
1106.84	0.468927
1105.9	0.475303
1104.97	0.481478
1104.03	0.48937
1103.09	0.498149
1102.15	0.508158
1101.21	0.518231
1100.28	0.529812
1099.34	0.541986
1098.4	0.55295
1097.46	0.562502
1096.52	0.571475
1095.58	0.577333
1094.64	0.580691
1093.7	0.583084
1092.76	0.585838
1091.82	0.590563
1090.88	0.599945
1089.94	0.616674
1089	0.717814
1088.06	0.723906
1087.12	0.656306
1086.18	0.537318
1085.24	0.389971
1084.29	0.24196
1083.35	0.124622
1082.41	0.075004
1081.47	0.137857
1080.53	0.137779
1079.58	0.137701
1078.64	0.137623
1077.7	0.137545
1076.76	0.137467
1075.81	0.137389
1074.87	0.137311
1073.93	0.137233
1072.98	0.0691302
1072.04	0.123612
1071.1	0.250913
1070.15	0.410207
1069.21	0.56481
1068.26	0.684077
1067.32	0.74123
1066.38	0.714478
1065.43	0.582395
1064.49	0.540519
1063.54	0.507913
1062.6	0.483491
1061.65	0.464373
1060.7	0.448796
1059.76	0.436268
1058.81	0.426498
1057.87	0.417642
1056.92	0.410121
1055.97	0.402841
1055.03	0.396405
1054.08	0.389885
1053.13	0.383465
1052.19	0.378319
1051.24	0.373959
1050.29	0.370271
1049.34	0.367254
1048.4	0.363971
1047.45	0.361568
1046.5	0.358873
1045.55	0.356479
1044.6	0.354661
1043.65	0.353209
1042.71	0.351625
1041.76	0.349695
1040.81	0.348144
1039.86	0.347176
1038.91	0.346143
1037.96	0.345443
1037.01	0.345061
1036.06	0.344354
1035.11	0.342951
1034.16	0.341579
1033.21	0.340132
1032.26	0.338863
1031.31	0.337658
1030.36	0.337635
1029.4	0.337509
1028.45	0.337442
1027.5	0.337116
1026.55	0.336889
1025.6	0.336593
1024.65	0.33606
1023.69	0.335358
1022.74	0.3349
1021.79	0.334692
1020.84	0.334855
1019.88	0.335342
1018.93	0.337083
1017.98	0.34031
1017.02	0.3438
1016.07	0.347663
1015.12	0.352187
1014.16	0.355925
1013.21	0.357458
1012.25	0.357074
1011.3	0.354998
1010.34	0.351403
1009.39	0.346581
1008.43	0.342352
1007.48	0.339367
1006.52	0.336589
1005.57	0.334599
1004.61	0.333711
1003.66	0.332888
1002.7	0.333007
1001.74	0.333022
1000.79	0.333372
999.832	0.333368
998.875	0.333024
997.919	0.332663
996.962	0.331962
996.004	0.330853
995.047	0.330625
994.089	0.33015
993.132	0.329989
992.174	0.329972
991.216	0.330048
990.258	0.330226
989.299	0.330005
988.341	0.32978
987.382	0.329841
986.423	0.329332
985.464	0.329291
984.505	0.32908
983.545	0.328726
982.586	0.328493
981.626	0.328606
980.666	0.328944
979.706	0.329106
978.746	0.32876
977.785	0.328693
976.824	0.328522
975.864	0.328486
974.903	0.328775
973.941	0.329461
972.98	0.330225
972.019	0.330419
971.057	0.330601
970.095	0.330407
969.133	0.330406
968.171	0.330509
967.209	0.331031
966.246	0.331756
965.283	0.332495
964.32	0.333083
963.357	0.333729
962.394	0.333614
961.431	0.333203
960.467	0.332899
959.503	0.333298
958.54	0.33333
957.575	0.33306
956.611	0.333056
955.647	0.332769
954.682	0.332679
953.717	0.332226
952.752	0.332449
951.787	0.332941
950.822	0.332753
949.857	0.3325
948.891	0.332034
947.925	0.33173
946.959	0.331975
945.993	0.33223
945.026	0.33234
944.06	0.33268
943.093	0.332748
942.126	0.332571
941.159	0.332166
940.192	0.332073
939.225	0.331836
938.257	0.33137
937.289	0.33066
936.322	0.330763
935.353	0.330416
934.385	0.329629
933.417	0.329305
932.448	0.32938
931.479	0.329555
930.51	0.329623
929.541	0.329813
928.572	0.329964
927.602	0.329977
926.633	0.32965
925.663	0.329308
924.693	0.32938
923.723	0.329594
922.752	0.329979
921.782	0.329918
920.811	0.32955
919.84	0.329425
918.869	0.32931
917.898	0.328973
916.926	0.32858
915.955	0.328471
914.983	0.328905
914.011	0.329151
913.039	0.329049
912.067	0.328868
911.094	0.328408
910.122	0.3282
909.149	0.327793
908.176	0.327573
907.203	0.327613
906.229	0.327567
905.256	0.327491
904.282	0.327688
903.308	0.327378
902.334	0.327819
901.36	0.328004
900.386	0.327888
899.411	0.327809
898.436	0.327868
897.461	0.32806
896.486	0.328169
895.511	0.328021
894.536	0.328277
893.56	0.328012
892.584	0.327765
891.608	0.328173
890.632	0.328721
889.656	0.328559
888.679	0.328423
887.702	0.32861
886.726	0.32875
885.748	0.328896
884.771	0.328666
883.794	0.329067
882.816	0.329231
881.839	0.329133
880.861	0.328876
879.882	0.329268
878.904	0.329565
877.926	0.330074
876.947	0.330135
875.968	0.330354
874.989	0.330454
874.01	0.330954
873.031	0.330598
872.051	0.330968
871.072	0.33086
870.092	0.331191
869.112	0.331306
868.131	0.330892
867.151	0.33073
866.17	0.330916
865.19	0.330669
864.209	0.330595
863.228	0.330642
862.246	0.330918
861.265	0.331229
860.283	0.331358
859.301	0.331516
858.319	0.332317
857.337	0.332516
856.355	0.332411
855.372	0.332474
854.389	0.332017
853.407	0.332151
852.424	0.332
851.44	0.331994
850.457	0.332509
849.473	0.332826
848.489	0.332806
847.505	0.333152
846.521	0.33298
845.537	0.333804
844.552	0.334175
843.568	0.334516
842.583	0.334795
841.598	0.335176
840.613	0.335338
839.627	0.336359
838.642	0.336862
837.656	0.33779
836.67	0.338341
835.684	0.338838
834.698	0.339652
833.711	0.340458
832.724	0.341511
831.738	0.343069
830.751	0.34367
829.763	0.343855
828.776	0.343864
827.789	0.343566
826.801	0.343895
825.813	0.34434
824.825	0.344419
823.837	0.344472
822.848	0.343996
821.859	0.343984
820.871	0.343799
819.882	0.34336
818.892	0.343167
817.903	0.34304
816.914	0.342525
815.924	0.34158
814.934	0.341223
813.944	0.341025
812.954	0.340526
811.963	0.340187
810.973	0.33976
809.982	0.338969
808.991	0.338076
808	0.337061
807.008	0.336539
806.017	0.336003
805.025	0.335912
804.033	0.335876
803.041	0.335318
802.049	0.334935
801.057	0.334741
800.064	0.334539
799.071	0.334321
798.078	0.334312
797.085	0.334314
796.092	0.333823
795.099	0.332929
794.105	0.332723
793.111	0.333022
792.117	0.33339
791.123	0.333768
790.128	0.334401
789.134	0.335204
788.139	0.335405
787.144	0.335104
786.149	0.334414
785.154	0.334364
784.158	0.334135
783.162	0.334121
782.167	0.3345
781.171	0.335235
780.174	0.335914
779.178	0.336029
778.181	0.33578
777.185	0.335582
776.188	0.335183
775.191	0.335632
774.193	0.335846
773.196	0.336089
772.198	0.336813
771.2	0.336853
770.202	0.337133
769.204	0.336916
768.206	0.337597
767.207	0.338488
766.208	0.338977
765.209	0.339192
764.21	0.339689
763.211	0.340243
762.212	0.340742
761.212	0.340914
760.212	0.341571
759.212	0.342009
758.212	0.343044
757.211	0.344936
756.211	0.348328
755.21	0.353679
754.209	0.361378
753.208	0.37222
752.207	0.388011
751.205	0.408434
750.203	0.433067
749.202	0.462577
748.2	0.495358
747.197	0.530044
746.195	0.564786
745.192	0.597543
744.19	0.624486
743.187	0.640643
742.183	0.643921
741.18	0.632959
740.177	0.608587
739.173	0.574502
738.169	0.534505
737.165	0.494497
736.161	0.456469
735.156	0.423426
734.152	0.397644
733.147	0.377414
732.142	0.363928
731.137	0.355093
730.131	0.349529
729.126	0.346104
728.12	0.344052
727.114	0.342392
726.108	0.341683
725.102	0.340773
724.095	0.340389
723.089	0.340507
722.082	0.340419
721.075	0.34029
720.068	0.341426
719.06	0.342872
718.053	0.344981
717.045	0.347628
716.037	0.349893
715.029	0.352227
714.021	0.353896
713.012	0.355639
712.004	0.357401
710.995	0.358364
709.986	0.358625
708.977	0.359053
707.967	0.358747
706.958	0.358301
705.948	0.357276
704.938	0.355512
703.928	0.353709
702.917	0.351412
701.907	0.348974
700.896	0.347337
699.885	0.345881
698.874	0.345245
697.863	0.344333
696.851	0.342939
695.84	0.341716
694.828	0.340861
693.816	0.33977
692.804	0.338592
691.791	0.337411
690.779	0.336749
689.766	0.336438
688.753	0.33641
687.74	0.336876
686.727	0.337382
685.713	0.337677
684.7	0.337552
683.686	0.336996
682.672	0.336556
681.658	0.336039
680.643	0.336115
679.629	0.336105
678.614	0.335745
677.599	0.335819
676.584	0.335774
675.568	0.33561
674.553	0.335905
673.537	0.335553
672.521	0.335474
671.505	0.33504
670.489	0.335209
669.472	0.335476
668.456	0.335632
667.439	0.335939
666.422	0.336228
665.405	0.33575
664.387	0.33518
663.37	0.334622
662.352	0.334409
661.334	0.334052
660.316	0.333789
659.297	0.333622
658.279	0.333386
657.26	0.333384
656.241	0.333584
655.222	0.33365
654.203	0.333796
653.183	0.33422
652.164	0.334714
651.144	0.334486
650.124	0.334179
649.104	0.333719
648.083	0.333803
647.063	0.333977
646.042	0.334371
645.021	0.335219
644	0.335837
642.978	0.335977
641.957	0.336202
640.935	0.335896
639.913	0.336197
638.891	0.337589
637.869	0.340803
636.846	0.349251
635.824	0.365724
634.801	0.391681
633.778	0.425059
632.755	0.458491
631.731	0.482934
630.708	0.491518
629.684	0.480998
628.66	0.456007
627.636	0.423857
626.611	0.393636
625.587	0.37064
624.562	0.3562
623.537	0.347908
622.512	0.343945
621.487	0.341517
620.461	0.340264
619.436	0.339151
618.41	0.338829
617.384	0.338588
616.357	0.338608
615.331	0.337767
614.304	0.338036
613.277	0.337922
612.25	0.337721
611.223	0.337473
610.196	0.337315
609.168	0.337634
608.141	0.337508
607.113	0.337102
606.084	0.337784
605.056	0.337727
604.028	0.337647
602.999	0.337091
601.97	0.336744
600.941	0.336899
599.912	0.336508
598.882	0.33652
597.852	0.336809
596.823	0.336646
595.793	0.337146
594.762	0.337137
593.732	0.336857
592.701	0.336709
591.671	0.336556
590.64	0.336218
589.608	0.335924
588.577	0.335968
587.545	0.336618
586.514	0.337119
585.482	0.337182
584.45	0.337545
583.417	0.337416
582.385	0.337078
581.352	0.337005
580.319	0.33672
579.286	0.336763
578.253	0.336865
577.219	0.337497
576.186	0.338656
575.152	0.339565
574.118	0.341397
573.083	0.343397
572.049	0.344886
571.014	0.346571
569.98	0.348438
568.945	0.350421
567.909	0.352481
566.874	0.354139
565.838	0.35566
564.803	0.357062
563.767	0.357353
562.73	0.357629
561.694	0.357479
560.658	0.357392
559.621	0.357662
558.584	0.358109
557.547	0.3585
556.509	0.358902
555.472	0.358672
554.434	0.358675
553.396	0.358219
552.358	0.357933
551.32	0.358403
550.282	0.358239
549.243	0.357752
548.204	0.357284
547.165	0.356631
546.126	0.355896
545.086	0.355045
544.047	0.354074
543.007	0.352883
541.967	0.351089
540.927	0.34949
539.886	0.348599
538.846	0.347628
537.805	0.347128
536.764	0.346855
535.723	0.34649
534.681	0.345531
533.64	0.345626
532.598	0.345709
531.556	0.346422
530.514	0.346966
529.472	0.347764
528.429	0.347774
527.387	0.347156
526.344	0.346306
525.301	0.346427
524.257	0.346116
523.214	0.346801
522.17	0.347258
521.126	0.347746
520.082	0.347939
519.038	0.347249
517.993	0.346713
516.949	0.346218
515.904	0.345152
514.859	0.345172
513.814	0.344717
512.768	0.34484
511.723	0.344781
510.677	0.344192
509.631	0.34371
508.585	0.343111
507.538	0.342167
506.492	0.341998
505.445	0.341583
504.398	0.341753
503.351	0.341283
502.303	0.341834
501.256	0.341319
500.208	0.340909
499.16	0.340552
498.112	0.340083
497.063	0.339396
496.015	0.339574
494.966	0.339473
493.917	0.339836
492.868	0.339444
491.819	0.339366
490.769	0.339459
489.72	0.339307
488.67	0.338985
487.62	0.339434
486.569	0.338987
485.519	0.338412
484.468	0.337505
483.417	0.337721
482.366	0.3373
481.315	0.337012
480.263	0.336525
479.212	0.336104
478.16	0.335273
477.108	0.334858
476.055	0.334313
475.003	0.334822
473.95	0.334513
472.897	0.334002
471.844	0.333773
470.791	0.334073
469.738	0.334597
468.684	0.335041
467.63	0.335528
466.576	0.335855
465.522	0.335688
464.468	0.335438
463.413	0.335315
462.358	0.335691
461.303	0.336455
460.248	0.337503
459.193	0.338769
458.137	0.339636
457.081	0.340503
456.025	0.341789
454.969	0.343431
453.913	0.34463
452.856	0.34644
451.799	0.348107
450.742	0.349487
449.685	0.350885
448.628	0.35254
447.57	0.354198
446.512	0.356031
445.454	0.356998
444.396	0.357948
443.338	0.35826
442.279	0.358031
441.221	0.358423
440.162	0.358541
439.102	0.358504
438.043	0.358699
436.983	0.358792
435.924	0.358897
434.864	0.358841
433.804	0.358387
432.743	0.35807
431.683	0.358012
430.622	0.35791
429.561	0.358519
428.5	0.358243
427.439	0.357702
426.377	0.357828
425.315	0.357845
424.253	0.357738
423.191	0.358078
422.129	0.358161
421.066	0.358562
420.004	0.358369
418.941	0.358146
417.878	0.35907
416.814	0.35988
415.751	0.361157
414.687	0.363304
413.623	0.36504
412.559	0.36692
411.495	0.369005
410.43	0.370848
409.365	0.372443
408.301	0.373457
407.235	0.373725
406.17	0.373822
405.105	0.372952
404.039	0.371509
402.973	0.36999
401.907	0.368445
400.84	0.366693
399.774	0.364864
398.707	0.362537
397.64	0.359904
396.573	0.35774
395.506	0.355282
394.438	0.353085
393.371	0.350862
392.303	0.349235
391.235	0.348253
390.166	0.347097
389.098	0.345802
388.029	0.345665
386.96	0.345042
385.891	0.344664
384.822	0.344
383.752	0.343686
382.682	0.343424
381.613	0.342874
380.542	0.34218
379.472	0.342431
378.402	0.341918
377.331	0.341827
376.26	0.341719
375.189	0.341821
374.117	0.341894
373.046	0.341804
371.974	0.341396
370.902	0.341367
369.83	0.340642
368.758	0.340358
367.685	0.340581
366.613	0.340776
365.54	0.34062
364.466	0.340295
363.393	0.339566
362.32	0.338509
361.246	0.337377
360.172	0.337013
359.098	0.336852
358.023	0.336381
356.949	0.336235
355.874	0.336336
354.799	0.336451
353.724	0.337132
352.649	0.3382
351.573	0.339564
350.497	0.340449
349.421	0.341135
348.345	0.341781
347.269	0.341993
346.192	0.342516
345.115	0.343401
344.038	0.344678
342.961	0.345124
341.884	0.34574
340.806	0.346539
339.728	0.347103
338.65	0.347737
337.572	0.348697
336.494	0.350086
335.415	0.351999
334.336	0.352769
333.257	0.354569
332.178	0.356097
331.099	0.357694
330.019	0.359331
328.939	0.360826
327.859	0.362561
326.779	0.364415
325.699	0.365933
324.618	0.367492
323.537	0.368883
322.456	0.370355
321.375	0.371836
320.293	0.373604
319.212	0.375984
318.13	0.378263
317.048	0.379694
315.966	0.380981
314.883	0.381912
313.8	0.381965
312.718	0.381726
311.634	0.381379
310.551	0.381098
309.468	0.380689
308.384	0.379516
307.3	0.379157
306.216	0.37871
305.132	0.37839
304.047	0.377683
302.962	0.37691
301.877	0.3763
300.792	0.375669
299.707	0.374157
298.621	0.373093
297.536	0.372274
296.45	0.371965
295.364	0.37159
294.277	0.371135
293.191	0.371069
292.104	0.370753
291.017	0.370063
289.93	0.370114
288.842	0.369928
287.755	0.370666
286.667	0.371617
285.579	0.372331
284.491	0.373346
283.402	0.374237
282.314	0.375055
281.225	0.376471
280.136	0.377713
279.047	0.378817
277.957	0.379322
276.867	0.37981
275.778	0.379564
274.688	0.379648
273.597	0.380099
272.507	0.38149
271.416	0.383178
270.325	0.383732
269.234	0.384253
268.143	0.384865
267.051	0.38503
265.96	0.385749
264.868	0.385957
263.776	0.386374
262.683	0.386209
261.591	0.386005
260.498	0.38587
259.405	0.38571
258.312	0.385619
257.218	0.385768
256.125	0.385066
255.031	0.384363
253.937	0.383018
252.843	0.381991
251.748	0.380071
250.654	0.377741
249.559	0.375434
248.464	0.372942
247.369	0.369876
246.273	0.367311
245.178	0.364528
244.082	0.361436
242.986	0.358241
241.889	0.35554
240.793	0.353508
239.696	0.351244
238.599	0.349619
237.502	0.349034
236.405	0.348152
235.307	0.347071
234.21	0.34656
233.112	0.346225
232.014	0.346033
230.915	0.346003
229.817	0.345868
228.718	0.34618
227.619	0.346342
226.52	0.347157
225.42	0.347559
224.321	0.348531
223.221	0.349813
222.121	0.350799
221.021	0.35113
219.92	0.351714
218.82	0.352792
217.719	0.35422
216.618	0.354978
215.516	0.356399
214.415	0.357264
213.313	0.358002
212.211	0.358569
211.109	0.359863
210.007	0.361197
208.904	0.362766
207.802	0.364025
206.699	0.365314
205.595	0.365901
204.492	0.366743
203.389	0.36705
202.285	0.367691
201.181	0.36835
200.077	0.370023
198.972	0.3714
197.867	0.373045
196.763	0.374561
195.658	0.375647
194.552	0.375704
193.447	0.376444
192.341	0.377614
191.235	0.379149
190.129	0.380374
189.023	0.381598
187.916	0.383865
186.81	0.385673
185.703	0.387169
184.595	0.389741
183.488	0.392263
182.381	0.394504
181.273	0.397026
180.165	0.4
179.057	0.404004
177.948	0.407534
176.839	0.411079
175.731	0.41465
174.622	0.419046
173.512	0.42279
172.403	0.426905
171.293	0.430921
170.183	0.433705
169.073	0.435037
167.963	0.435085
166.852	0.434305
165.742	0.433178
164.631	0.430933
163.519	0.428771
162.408	0.426587
161.296	0.42407
160.185	0.422583
159.073	0.421489
157.96	0.421481
156.848	0.422865
155.735	0.424355
154.622	0.426655
153.509	0.429653
152.396	0.432508
151.282	0.436308
150.169	0.440343
149.055	0.445181
147.941	0.450486
146.826	0.454697
145.712	0.459273
144.597	0.464726
143.482	0.469638
142.367	0.475289
141.251	0.48133
140.136	0.487739
139.02	0.493605
137.904	0.498886
136.788	0.505026
135.671	0.512157
134.554	0.518649
133.437	0.525945
132.32	0.533139
131.203	0.540102
130.085	0.547019
128.968	0.553779
127.85	0.561628
126.732	0.569748
125.613	0.57799
124.494	0.587099
123.376	0.596293
122.257	0.606401
121.137	0.617642
120.018	0.62905
118.898	0.640749
117.778	0.711261
116.658	0.685591
115.538	0.589222
114.417	0.448901
113.296	0.292399
112.176	0.146805
111.054	0.039721
109.933	0
108.811	0.0573823
107.689	0.0572895
106.567	0.0571967
105.445	0.0571038
104.323	0.0570025
103.2	0.0569068
102.077	0.0568268
100.954	0.0567684
