4001.37,0
4000.9,0
4000.42,0
3999.94,0
3999.47,0
3998.99,0
3998.51,0
3998.04,0
3997.56,0
3997.08,0
3996.6,0
3996.13,0
3995.65,0
3995.17,0
3994.7,0
3994.22,0
3993.74,0
3993.26,0
3992.79,0
3992.31,0
3991.83,0
3991.35,0
3990.88,0
3990.4,0
3989.92,0
3989.44,0
3988.96,0
3988.49,0
3988.01,0
3987.53,0
3987.05,0
3986.57,0
3986.09,0
3985.61,0
3985.14,0
3984.66,0
3984.18,0
3983.7,0
3983.22,0
3982.74,0
3982.26,0
3981.78,0
3981.3,0
3980.83,0
3980.35,0
3979.87,0
3979.39,0
3978.91,0
3978.43,0
3977.95,0
3977.47,0
3976.99,0
3976.51,0
3976.03,0
3975.55,0
3975.07,0
3974.59,0
3974.11,0
3973.63,0
3973.15,0
3972.67,0
3972.19,0
3971.71,0
3971.23,0
3970.74,0
3970.26,0
3969.78,0
3969.3,0
3968.82,0
3968.34,0
3967.86,0
3967.38,0
3966.9,0
3966.42,0
3965.93,0
3965.45,0
3964.97,0
3964.49,0
3964.01,0
3963.53,0
3963.04,0
3962.56,0
3962.08,0
3961.6,0
3961.12,0
3960.63,0
3960.15,0
3959.67,0
3959.19,0
3958.71,0
3958.22,0
3957.74,0
3957.26,0
3956.77,0
3956.29,0
3955.81,0
3955.33,0
3954.84,0
3954.36,0
3953.88,0
3953.39,0
3952.91,0
3952.43,0
3951.94,0
3951.46,0
3950.98,0
3950.49,0
3950.01,0
3949.53,0
3949.04,0
3948.56,0
3948.07,0
3947.59,0
3947.11,0
3946.62,0
3946.14,0
3945.65,0
3945.17,0
3944.69,0
3944.2,0
3943.72,0
3943.23,0
3942.75,0
3942.26,0
3941.78,0
3941.29,0
3940.81,0
3940.32,0
3939.84,0
3939.35,0
3938.87,0
3938.38,0
3937.9,0
3937.41,0
3936.93,0
3936.44,0
3935.95,0
3935.47,0
3934.98,0
3934.5,0
3934.01,0
3933.52,0
3933.04,0
3932.55,0
3932.07,0
3931.58,0
3931.09,0
3930.61,0
3930.12,0
3929.63,0
3929.15,0
3928.66,0
3928.17,0
3927.69,0
3927.2,0
3926.71,0
3926.23,0
3925.74,0
3925.25,0
3924.76,0
3924.28,0
3923.79,0
3923.3,0
3922.81,0
3922.33,0
3921.84,0
3921.35,0
3920.86,0
3920.38,0
3919.89,0
3919.4,0
3918.91,0
3918.42,0
3917.94,0
3917.45,0
3916.96,0
3916.47,0
3915.98,0
3915.49,0
3915,0
3914.52,0
3914.03,0
3913.54,0
3913.05,0
3912.56,0
3912.07,0
3911.58,0
3911.09,0
3910.6,0
3910.11,0
3909.62,0
3909.14,0
3908.65,0
3908.16,0
3907.67,0
3907.18,0
3906.69,0
3906.2,0
3905.71,0
3905.22,0
3904.73,0
3904.24,0
3903.75,0
3903.26,0
3902.77,0
3902.27,0
3901.78,0
3901.29,0
3900.8,0
3900.31,0
3899.82,0
3899.33,0
3898.84,0
3898.35,0
3897.86,0
3897.37,0
3896.87,0
3896.38,0
3895.89,0
3895.4,0
3894.91,0
3894.42,0
3893.93,0
3893.43,0
3892.94,0
3892.45,0
3891.96,0
3891.47,0
3890.97,0
3890.48,0
3889.99,0
3889.5,0
3889.01,0
3888.51,0
3888.02,0
3887.53,0
3887.03,0
3886.54,0
3886.05,0
3885.56,0
3885.06,0
3884.57,0
3884.08,0
3883.58,0
3883.09,0
3882.6,0
3882.1,0
3881.61,0
3881.12,0
3880.62,0
3880.13,0
3879.64,0
3879.14,0
3878.65,0
3878.15,0
3877.66,0
3877.17,0
3876.67,0
3876.18,0
3875.68,0
3875.19,0
3874.7,0
3874.2,0
3873.71,0
3873.21,0
3872.72,0
3872.22,0
3871.73,0
3871.23,0
3870.74,0
3870.24,0
3869.75,0
3869.25,0
3868.76,0
3868.26,0
3867.77,0
3867.27,0
3866.77,0
3866.28,0
3865.78,0
3865.29,0
3864.79,0
3864.3,0
3863.8,0
3863.3,0
3862.81,0
3862.31,0
3861.81,0
3861.32,0
3860.82,0
3860.33,0
3859.83,0
3859.33,0
3858.84,0
3858.34,0
3857.84,0
3857.35,0
3856.85,0
3856.35,0
3855.85,0
3855.36,0
3854.86,0
3854.36,0
3853.86,0
3853.37,0
3852.87,0
3852.37,0
3851.87,0
3851.38,0
3850.88,0
3850.38,0
3849.88,0
3849.38,0
3848.89,0
3848.39,0
3847.89,0
3847.39,0
3846.89,0
3846.39,0
3845.9,0
3845.4,0
3844.9,0
3844.4,0
3843.9,0
3843.4,0
3842.9,0
3842.4,0
3841.91,0
3841.41,0
3840.91,0
3840.41,0
3839.91,0
3839.41,0
3838.91,0
3838.41,0
3837.91,0
3837.41,0
3836.91,0
3836.41,0
3835.91,0
3835.41,0
3834.91,0
3834.41,0
3833.91,0
3833.41,0
3832.91,0
3832.41,0
3831.91,0
3831.41,0
3830.91,0
3830.4,0
3829.9,0
3829.4,0
3828.9,0
3828.4,0
3827.9,0
3827.4,0
3826.9,0
3826.4,0
3825.89,0
3825.39,0
3824.89,0
3824.39,0
3823.89,0
3823.39,0
3822.88,0
3822.38,0
3821.88,0
3821.38,0
3820.88,0
3820.37,0
3819.87,0
3819.37,0
3818.87,0
3818.36,0
3817.86,0
3817.36,0
3816.86,0
3816.35,0
3815.85,0
3815.35,0
3814.84,0
3814.34,0
3813.84,0
3813.33,0
3812.83,0
3812.33,0
3811.82,0
3811.32,0
3810.82,0
3810.31,0
3809.81,0
3809.31,0
3808.8,0
3808.3,0
3807.79,0
3807.29,0
3806.79,0
3806.28,0
3805.78,0
3805.27,0
3804.77,0
3804.26,0
3803.76,0
3803.25,0
3802.75,0
3802.24,0
3801.74,0
3801.23,0
3800.73,0
3800.22,0
3799.72,0
3799.21,0
3798.71,0
3798.2,0
3797.7,0
3797.19,0
3796.69,0
3796.18,0
3795.67,0
3795.17,0
3794.66,0
3794.16,0
3793.65,0
3793.14,0
3792.64,0
3792.13,0
3791.63,0
3791.12,0
3790.61,0
3790.11,0
3789.6,0
3789.09,0
3788.59,0
3788.08,0
3787.57,0
3787.06,0
3786.56,0
3786.05,0
3785.54,0
3785.04,0
3784.53,0
3784.02,0
3783.51,0
3783.01,0
3782.5,0
3781.99,0
3781.48,0
3780.97,0
3780.47,0
3779.96,0
3779.45,0
3778.94,0
3778.43,0
3777.93,0
3777.42,0
3776.91,0
3776.4,0
3775.89,0
3775.38,0
3774.87,0
3774.36,0
3773.86,0
3773.35,0
3772.84,0
3772.33,0
3771.82,0
3771.31,0
3770.8,0
3770.29,0
3769.78,0
3769.27,0
3768.76,0
3768.25,0
3767.74,0
3767.23,0
3766.72,0
3766.21,0
3765.7,0
3765.19,0
3764.68,0
3764.17,0
3763.66,0
3763.15,0
3762.64,0
3762.13,0
3761.62,0
3761.11,0
3760.6,0
3760.09,0
3759.57,0
3759.06,0
3758.55,0
3758.04,0
3757.53,0
3757.02,0
3756.51,0
3756,0
3755.48,0
3754.97,0
3754.46,0
3753.95,0
3753.44,0
3752.92,0
3752.41,0
3751.9,0
3751.39,0
3750.88,0
3750.36,0
3749.85,0
3749.34,0
3748.83,0
3748.31,0
3747.8,0
3747.29,0
3746.78,0
3746.26,0
3745.75,0
3745.24,0
3744.72,0
3744.21,0
3743.7,0
3743.18,0
3742.67,0
3742.16,0
3741.64,0
3741.13,0
3740.61,0
3740.1,0
3739.59,0
3739.07,0
3738.56,0
3738.04,0
3737.53,0
3737.02,0
3736.5,0
3735.99,0
3735.47,0
3734.96,0
3734.44,0
3733.93,0
3733.41,0
3732.9,0
3732.38,0
3731.87,0
3731.35,0
3730.84,0
3730.32,0
3729.81,0
3729.29,0
3728.78,0
3728.26,0
3727.75,0
3727.23,0
3726.71,0
3726.2,0
3725.68,0
3725.17,0
3724.65,0
3724.13,0
3723.62,0
3723.1,0
3722.59,0
3722.07,0
3721.55,0
3721.04,0
3720.52,0
3720,0
3719.49,0
3718.97,0
3718.45,0
3717.93,0
3717.42,0
3716.9,0
3716.38,0
3715.87,0
3715.35,0
3714.83,0
3714.31,0
3713.8,0
3713.28,0
3712.76,0
3712.24,0
3711.72,0
3711.21,0
3710.69,0
3710.17,0
3709.65,0
3709.13,0
3708.61,0
3708.1,0
3707.58,0
3707.06,0
3706.54,0
3706.02,0
3705.5,0
3704.98,0
3704.46,0
3703.95,0
3703.43,0
3702.91,0
3702.39,0
3701.87,0
3701.35,0
3700.83,0
3700.31,0
3699.79,0
3699.27,0
3698.75,0
3698.23,0
3697.71,0
3697.19,0
3696.67,0
3696.15,0
3695.63,0
3695.11,0
3694.59,0
3694.07,0
3693.55,0
3693.03,0
3692.51,0
3691.99,0
3691.46,0
3690.94,0
3690.42,0
3689.9,0
3689.38,0
3688.86,0
3688.34,0
3687.82,0
3687.29,0
3686.77,0
3686.25,0
3685.73,0
3685.21,0
3684.69,0
3684.16,0
3683.64,0
3683.12,0
3682.6,0
3682.08,0
3681.55,0
3681.03,0
3680.51,0
3679.99,0
3679.46,0
3678.94,0
3678.42,0
3677.89,0
3677.37,0
3676.85,0
3676.33,0
3675.8,0
3675.28,0
3674.76,0
3674.23,0
3673.71,0
3673.19,0
3672.66,0
3672.14,0
3671.61,0
3671.09,0
3670.57,0
3670.04,0
3669.52,0
3668.99,0
3668.47,0
3667.95,0
3667.42,0
3666.9,0
3666.37,0
3665.85,0
3665.32,0
3664.8,0
3664.27,0
3663.75,0
3663.22,0
3662.7,0
3662.17,0
3661.65,0
3661.12,0
3660.6,0
3660.07,0
3659.55,0
3659.02,0
3658.49,0
3657.97,0
3657.44,0
3656.92,0
3656.39,0
3655.86,0
3655.34,0
3654.81,0
3654.29,0
3653.76,0
3653.23,0
3652.71,0
3652.18,0
3651.65,0
3651.13,0
3650.6,0
3650.07,0
3649.55,0
3649.02,0
3648.49,0
3647.96,0
3647.44,0
3646.91,0
3646.38,0
3645.85,0
3645.33,0
3644.8,0
3644.27,0
3643.74,0
3643.22,0
3642.69,0
3642.16,0
3641.63,0
3641.1,0
3640.57,0
3640.05,0
3639.52,0
3638.99,0
3638.46,0
3637.93,0
3637.4,0
3636.87,0
3636.35,0
3635.82,0
3635.29,0
3634.76,0
3634.23,0
3633.7,0
3633.17,0
3632.64,0
3632.11,0
3631.58,0
3631.05,0
3630.52,0
3629.99,0
3629.46,0
3628.93,0
3628.4,0
3627.87,0
3627.34,0
3626.81,0
3626.28,0
3625.75,0
3625.22,0
3624.69,0
3624.16,0
3623.63,0
3623.1,0
3622.57,0
3622.03,0
3621.5,0
3620.97,0
3620.44,0
3619.91,0
3619.38,0
3618.85,0
3618.32,0
3617.78,0
3617.25,0
3616.72,0
3616.19,0
3615.66,0
3615.12,0
3614.59,0
3614.06,0
3613.53,0
3613,0
3612.46,0
3611.93,0
3611.4,0
3610.86,0
3610.33,0
3609.8,0
3609.27,0
3608.73,0
3608.2,0
3607.67,0
3607.13,0
3606.6,0
3606.07,0
3605.53,0
3605,0
3604.47,0
3603.93,0
3603.4,0
3602.87,0
3602.33,0
3601.8,0
3601.26,0
3600.73,0
3600.2,0
3599.66,0
3599.13,0
3598.59,0
3598.06,0
3597.52,0
3596.99,0
3596.45,0
3595.92,0
3595.38,0
3594.85,0
3594.31,0
3593.78,0
3593.24,0
3592.71,0
3592.17,0
3591.64,0
3591.1,0
3590.57,0
3590.03,0
3589.49,0
3588.96,0
3588.42,0
3587.89,0
3587.35,0
3586.81,0
3586.28,0
3585.74,0
3585.2,0
3584.67,0
3584.13,0
3583.6,0
3583.06,0
3582.52,0
3581.98,0
3581.45,0
3580.91,0
3580.37,0
3579.84,0
3579.3,0
3578.76,0
3578.22,0
3577.69,0
3577.15,0
3576.61,0
3576.07,0
3575.54,0
3575,0
3574.46,0
3573.92,0
3573.38,0
3572.85,0
3572.31,0
3571.77,0
3571.23,0
3570.69,0
3570.15,0
3569.61,0
3569.08,0
3568.54,0
3568,0
3567.46,0
3566.92,0
3566.38,0
3565.84,0
3565.3,0
3564.76,0
3564.22,0
3563.68,0
3563.14,0
3562.6,0
3562.06,0
3561.52,0
3560.98,0
3560.44,0
3559.9,0
3559.36,0
3558.82,0
3558.28,0
3557.74,0
3557.2,0
3556.66,0
3556.12,0
3555.58,0
3555.04,0
3554.5,0
3553.96,0
3553.42,0
3552.87,0
3552.33,0
3551.79,0
3551.25,0
3550.71,0
3550.17,0
3549.63,0
3549.08,0
3548.54,0
3548,0
3547.46,0
3546.92,0
3546.37,0
3545.83,0
3545.29,0
3544.75,0
3544.21,0
3543.66,0
3543.12,0
3542.58,0
3542.03,0
3541.49,0
3540.95,0
3540.41,0
3539.86,0
3539.32,0
3538.78,0
3538.23,0
3537.69,0
3537.15,0
3536.6,0
3536.06,0
3535.52,0
3534.97,0
3534.43,0
3533.88,0
3533.34,0
3532.8,0
3532.25,0
3531.71,0
3531.16,0
3530.62,0
3530.07,0
3529.53,0
3528.98,0
3528.44,0
3527.89,0
3527.35,0
3526.8,0
3526.26,0
3525.71,0
3525.17,0
3524.62,0
3524.08,0
3523.53,0
3522.99,0
3522.44,0
3521.9,0
3521.35,0
3520.8,0
3520.26,0
3519.71,0
3519.17,0
3518.62,0
3518.07,0
3517.53,0
3516.98,0
3516.43,0
3515.89,0
3515.34,0
3514.79,0
3514.25,0
3513.7,0
3513.15,0
3512.61,0
3512.06,0
3511.51,0
3510.96,0
3510.42,0
3509.87,0
3509.32,0
3508.77,0
3508.23,0
3507.68,0
3507.13,0
3506.58,0
3506.04,0
3505.49,0
3504.94,0
3504.39,0
3503.84,0
3503.29,0
3502.75,0
3502.2,0
3501.65,0
3501.1,0
3500.55,0
3500,0
3499.45,0
3498.9,0
3498.35,0
3497.8,0
3497.26,0
3496.71,0
3496.16,0
3495.61,0
3495.06,0
3494.51,0
3493.96,0
3493.41,0
3492.86,0
3492.31,0
3491.76,0
3491.21,0
3490.66,0
3490.11,0
3489.56,0
3489,0
3488.45,0
3487.9,0
3487.35,0
3486.8,0
3486.25,0
3485.7,0
3485.15,0
3484.6,0
3484.05,0
3483.49,0
3482.94,0
3482.39,0
3481.84,0
3481.29,0
3480.74,0
3480.18,0
3479.63,0
3479.08,0
3478.53,0
3477.98,0
3477.42,0
3476.87,0
3476.32,0
3475.77,0
3475.21,0
3474.66,0
3474.11,0
3473.56,0
3473,0
3472.45,0
3471.9,0
3471.34,0
3470.79,0
3470.24,0
3469.68,0
3469.13,0
3468.58,0
3468.02,0
3467.47,0
3466.91,0
3466.36,0
3465.81,0
3465.25,0
3464.7,0
3464.14,0
3463.59,0
3463.04,0
3462.48,0
3461.93,0
3461.37,0
3460.82,0
3460.26,0
3459.71,0
3459.15,0
3458.6,0
3458.04,0
3457.49,0
3456.93,0
3456.38,0
3455.82,0
3455.27,0
3454.71,0
3454.15,0
3453.6,0
3453.04,0
3452.49,0
3451.93,0
3451.37,0
3450.82,0
3450.26,0
3449.7,0
3449.15,0
3448.59,0
3448.04,0
3447.48,0
3446.92,0
3446.36,0
3445.81,0
3445.25,0
3444.69,0
3444.14,0
3443.58,0
3443.02,0
3442.46,0
3441.91,0
3441.35,0
3440.79,0
3440.23,0
3439.68,0
3439.12,0
3438.56,0
3438,0
3437.44,0
3436.88,0
3436.33,0
3435.77,0
3435.21,0
3434.65,0
3434.09,0
3433.53,0
3432.97,0
3432.42,0
3431.86,0
3431.3,0
3430.74,0
3430.18,0
3429.62,0
3429.06,0
3428.5,0
3427.94,0
3427.38,0
3426.82,0
3426.26,0
3425.7,0
3425.14,0
3424.58,0
3424.02,0
3423.46,0
3422.9,0
3422.34,0
3421.78,0
3421.22,0
3420.66,0
3420.1,0
3419.54,0
3418.98,0
3418.41,0
3417.85,0
3417.29,0
3416.73,0
3416.17,0
3415.61,0
3415.05,0
3414.49,0
3413.92,0
3413.36,0
3412.8,0
3412.24,0
3411.68,0
3411.11,0
3410.55,0
3409.99,0
3409.43,0
3408.86,0
3408.3,0
3407.74,0
3407.18,0
3406.61,0
3406.05,0
3405.49,0
3404.92,0
3404.36,0
3403.8,0
3403.24,0
3402.67,0
3402.11,0
3401.54,0
3400.98,0
3400.42,0
3399.85,0
3399.29,0
3398.73,0
3398.16,0
3397.6,0
3397.03,0
3396.47,0
3395.9,0
3395.34,0
3394.78,0
3394.21,0
3393.65,0
3393.08,0
3392.52,0
3391.95,0
3391.39,0
3390.82,0
3390.26,0
3389.69,0
3389.13,0
3388.56,0
3387.99,0
3387.43,0
3386.86,0
3386.3,0
3385.73,0
3385.17,0
3384.6,0
3384.03,0
3383.47,0
3382.9,0
3382.33,0
3381.77,0
3381.2,0
3380.63,0
3380.07,0
3379.5,0
3378.93,0
3378.37,0
3377.8,0
3377.23,0
3376.67,0
3376.1,0
3375.53,0
3374.96,0
3374.4,0
3373.83,0
3373.26,0
3372.69,0
3372.12,0
3371.56,0
3370.99,0
3370.42,0
3369.85,0
3369.28,0
3368.72,0
3368.15,0
3367.58,0
3367.01,0
3366.44,0
3365.87,0
3365.3,0
3364.73,0
3364.17,0
3363.6,0
3363.03,0
3362.46,0
3361.89,0
3361.32,0
3360.75,0
3360.18,0
3359.61,0
3359.04,0
3358.47,0
3357.9,0
3357.33,0
3356.76,0
3356.19,0
3355.62,0
3355.05,0
3354.48,0
3353.91,0
3353.34,0
3352.77,0
3352.19,0
3351.62,0
3351.05,0
3350.48,0
3349.91,0
3349.34,0
3348.77,0
3348.2,0
3347.62,0
3347.05,0
3346.48,0
3345.91,0
3345.34,0
3344.76,0
3344.19,0
3343.62,0
3343.05,0
3342.48,0
3341.9,0
3341.33,0
3340.76,0
3340.19,0
3339.61,0
3339.04,0
3338.47,0
3337.89,0
3337.32,0
3336.75,0
3336.17,0
3335.6,0
3335.03,0
3334.45,0
3333.88,0
3333.31,0
3332.73,0
3332.16,0
3331.59,0
3331.01,0
3330.44,0
3329.86,0
3329.29,0
3328.71,0
3328.14,0
3327.56,0
3326.99,0
3326.42,0
3325.84,0
3325.27,0
3324.69,0
3324.12,0
3323.54,0
3322.97,0
3322.39,0
3321.81,0
3321.24,0
3320.66,0
3320.09,0
3319.51,0
3318.94,0
3318.36,0
3317.78,0
3317.21,0
3316.63,0
3316.06,0
3315.48,0
3314.9,0
3314.33,0
3313.75,0
3313.17,0
3312.6,0
3312.02,0
3311.44,0
3310.86,0
3310.29,0
3309.71,0
3309.13,0
3308.56,0
3307.98,0
3307.4,0
3306.82,0
3306.25,0
3305.67,0
3305.09,0
3304.51,0
3303.93,0
3303.36,0
3302.78,0
3302.2,0
3301.62,0
3301.04,0
3300.46,0
3299.88,0
3299.31,0
3298.73,0
3298.15,0
3297.57,0
3296.99,0
3296.41,0
3295.83,0
3295.25,0
3294.67,0
3294.09,0
3293.51,0
3292.93,0
3292.35,0
3291.77,0
3291.19,0
3290.61,0
3290.03,0
3289.45,0
3288.87,0
3288.29,0
3287.71,0
3287.13,0
3286.55,0
3285.97,0
3285.39,0
3284.81,0
3284.23,0
3283.64,0
3283.06,0
3282.48,0
3281.9,0
3281.32,0
3280.74,0
3280.16,0
3279.57,0
3278.99,0
3278.41,0
3277.83,0
3277.25,0
3276.66,0
3276.08,0
3275.5,0
3274.92,0
3274.33,0
3273.75,0
3273.17,0
3272.59,0
3272,0
3271.42,0
3270.84,0
3270.25,0
3269.67,0
3269.09,0
3268.5,0
3267.92,0
3267.34,0
3266.75,0
3266.17,0
3265.59,0
3265,0
3264.42,0
3263.83,0
3263.25,0
3262.67,0
3262.08,0
3261.5,0
3260.91,0
3260.33,0
3259.74,0
3259.16,0
3258.57,0
3257.99,0
3257.4,0
3256.82,0
3256.23,0
3255.65,0
3255.06,0
3254.48,0
3253.89,0
3253.3,0
3252.72,0
3252.13,0
3251.55,0
3250.96,0
3250.37,0
3249.79,0
3249.2,0
3248.62,0
3248.03,0
3247.44,0
3246.86,0
3246.27,0
3245.68,0
3245.09,0
3244.51,0
3243.92,0
3243.33,0
3242.75,0
3242.16,0
3241.57,0
3240.98,0
3240.4,0
3239.81,0
3239.22,0
3238.63,0
3238.04,0
3237.46,0
3236.87,0
3236.28,0
3235.69,0
3235.1,0
3234.51,0
3233.93,0
3233.34,0
3232.75,0
3232.16,0
3231.57,0
3230.98,0
3230.39,0
3229.8,0
3229.21,0
3228.62,0
3228.04,0
3227.45,0
3226.86,0
3226.27,0
3225.68,0
3225.09,0
3224.5,0
3223.91,0
3223.32,0
3222.73,0
3222.14,0
3221.54,0
3220.95,0
3220.36,0
3219.77,0
3219.18,0
3218.59,0
3218,0
3217.41,0
3216.82,0
3216.23,0
3215.63,0
3215.04,0
3214.45,0
3213.86,0
3213.27,0
3212.68,0
3212.08,0
3211.49,0
3210.9,0
3210.31,0
3209.72,0
3209.12,0
3208.53,0
3207.94,0
3207.35,0
3206.75,0
3206.16,0
3205.57,0
3204.97,0
3204.38,0
3203.79,0
3203.2,0
3202.6,0
3202.01,0
3201.41,0
3200.82,0
3200.23,0
3199.63,0
3199.04,0
3198.45,0
3197.85,0
3197.26,0
3196.66,0
3196.07,0
3195.47,0
3194.88,0
3194.29,0
3193.69,0
3193.1,0
3192.5,0
3191.91,0
3191.31,0
3190.72,0
3190.12,0
3189.53,0
3188.93,0
3188.33,0
3187.74,0
3187.14,0
3186.55,0
3185.95,0
3185.36,0
3184.76,0
3184.16,0
3183.57,0
3182.97,0
3182.37,0
3181.78,0
3181.18,0
3180.58,0
3179.99,0
3179.39,0
3178.79,0
3178.2,0
3177.6,0
3177,0
3176.41,0
3175.81,0
3175.21,0
3174.61,0
3174.02,0
3173.42,0
3172.82,0
3172.22,0
3171.62,0
3171.03,0
3170.43,0
3169.83,0
3169.23,0
3168.63,0
3168.03,0
3167.43,0
3166.84,0
3166.24,0
3165.64,0
3165.04,0
3164.44,0
3163.84,0
3163.24,0
3162.64,0
3162.04,0
3161.44,0
3160.84,0
3160.24,0
3159.64,0
3159.04,0
3158.44,0
3157.84,0
3157.24,0
3156.64,0
3156.04,0
3155.44,0
3154.84,0
3154.24,0
3153.64,0
3153.04,0
3152.44,0
3151.84,0
3151.24,0
3150.64,0
3150.03,0
3149.43,0
3148.83,0
3148.23,0
3147.63,0
3147.03,0
3146.42,0
3145.82,0
3145.22,0
3144.62,0
3144.02,0
3143.41,0
3142.81,0
3142.21,0
3141.61,0
3141,0
3140.4,0
3139.8,0
3139.19,0
3138.59,0
3137.99,0
3137.39,0
3136.78,0
3136.18,0
3135.58,0
3134.97,0
3134.37,0
3133.76,0
3133.16,0
3132.56,0
3131.95,0
3131.35,0
3130.74,0
3130.14,0
3129.54,0
3128.93,0
3128.33,0
3127.72,0
3127.12,0
3126.51,0
3125.91,0
3125.3,0
3124.7,0
3124.09,0
3123.49,0
3122.88,0
3122.27,0
3121.67,0
3121.06,0
3120.46,0
3119.85,0
3119.25,0
3118.64,0
3118.03,0
3117.43,0
3116.82,0
3116.21,0
3115.61,0
3115,0
3114.39,0
3113.79,0
3113.18,0
3112.57,0
3111.97,0
3111.36,0
3110.75,0
3110.15,0
3109.54,0
3108.93,0
3108.32,0
3107.71,0
3107.11,0
3106.5,0
3105.89,0
3105.28,0
3104.67,0
3104.07,0
3103.46,0
3102.85,0
3102.24,0
3101.63,0
3101.02,0
3100.41,0
3099.81,0
3099.2,0
3098.59,0
3097.98,0
3097.37,0
3096.76,0
3096.15,0
3095.54,0
3094.93,0
3094.32,0
3093.71,0
3093.1,0
3092.49,0
3091.88,0
3091.27,0
3090.66,0
3090.05,0
3089.44,0
3088.83,0
3088.22,0
3087.61,0
3087,0
3086.39,0
3085.77,0
3085.16,0
3084.55,0
3083.94,0
3083.33,0
3082.72,0
3082.11,0
3081.49,0
3080.88,0
3080.27,0
3079.66,0
3079.05,0
3078.43,0
3077.82,0
3077.21,0
3076.6,0
3075.98,0
3075.37,0
3074.76,0
3074.15,0
3073.53,0
3072.92,0
3072.31,0
3071.69,0
3071.08,0
3070.47,0
3069.85,0
3069.24,0
3068.63,0
3068.01,0
3067.4,0
3066.79,0
3066.17,0
3065.56,0
3064.94,0
3064.33,0
3063.71,0
3063.1,0
3062.48,0
3061.87,0
3061.26,0
3060.64,0
3060.03,0
3059.41,0
3058.79,0
3058.18,0
3057.56,0
3056.95,0
3056.33,0
3055.72,0
3055.1,0
3054.49,0
3053.87,0
3053.25,0
3052.64,0
3052.02,0
3051.41,0
3050.79,0
3050.17,0
3049.56,0
3048.94,0
3048.32,0
3047.71,0
3047.09,0
3046.47,0
3045.85,0
3045.24,0
3044.62,0
3044,0
3043.38,0
3042.77,0
3042.15,0
3041.53,0
3040.91,0
3040.3,0
3039.68,0
3039.06,0
3038.44,0
3037.82,0
3037.2,0
3036.59,0
3035.97,0
3035.35,0
3034.73,0
3034.11,0
3033.49,0
3032.87,0
3032.25,0
3031.63,0
3031.01,0
3030.39,0
3029.77,0
3029.15,0
3028.54,0
3027.92,0
3027.3,0
3026.68,0
3026.05,0
3025.43,0
3024.81,0
3024.19,0
3023.57,0
3022.95,0
3022.33,0
3021.71,0
3021.09,0
3020.47,0
3019.85,0
3019.23,0
3018.61,0
3017.98,0
3017.36,0
3016.74,0
3016.12,0
3015.5,0
3014.88,0
3014.25,0
3013.63,0
3013.01,0
3012.39,0
3011.76,0
3011.14,0
3010.52,0
3009.9,0
3009.27,0
3008.65,0
3008.03,0
3007.4,0
3006.78,0
3006.16,0
3005.54,0
3004.91,0
3004.29,0
3003.66,0
3003.04,0
3002.42,0
3001.79,0
3001.17,0
3000.54,0
2999.92,0
2999.3,0
2998.67,0
2998.05,0
2997.42,0
2996.8,0
2996.17,0
2995.55,0
2994.92,0
2994.3,0
2993.67,0
2993.05,0
2992.42,0
2991.8,0
2991.17,0
2990.55,0
2989.92,0
2989.29,0
2988.67,0
2988.04,0
2987.42,0
2986.79,0
2986.16,0
2985.54,0
2984.91,0
2984.28,0
2983.66,0
2983.03,0
2982.4,0
2981.78,0
2981.15,0
2980.52,0
2979.9,0
2979.27,0
2978.64,0
2978.01,0
2977.39,0
2976.76,0
2976.13,0
2975.5,0
2974.87,0
2974.25,0
2973.62,0
2972.99,0
2972.36,0
2971.73,0
2971.1,0
2970.47,0
2969.85,0
2969.22,0
2968.59,0
2967.96,0
2967.33,0
2966.7,0
2966.07,0
2965.44,0
2964.81,0
2964.18,0
2963.55,0
2962.92,0
2962.29,0
2961.66,0
2961.03,0
2960.4,0
2959.77,0
2959.14,0
2958.51,0
2957.88,0
2957.25,0
2956.62,0
2955.99,0
2955.36,0
2954.73,0
2954.09,0
2953.46,0
2952.83,0
2952.2,0
2951.57,0
2950.94,0
2950.3,0
2949.67,0
2949.04,0
2948.41,0
2947.78,0
2947.14,0
2946.51,0
2945.88,0
2945.25,0
2944.61,0
2943.98,0
2943.35,0
2942.71,0
2942.08,0
2941.45,0
2940.82,0
2940.18,0
2939.55,0
2938.91,0
2938.28,0
2937.65,0
2937.01,0
2936.38,0
2935.75,0
2935.11,0
2934.48,0
2933.84,0
2933.21,0
2932.57,0
2931.94,0
2931.3,0
2930.67,0
2930.03,0
2929.4,0
2928.76,0
2928.13,0
2927.49,0
2926.86,0
2926.22,0
2925.59,0
2924.95,0
2924.32,0
2923.68,0
2923.04,0
2922.41,0
2921.77,0
2921.13,0
2920.5,0
2919.86,0
2919.23,0
2918.59,0
2917.95,0
2917.31,0
2916.68,0
2916.04,0
2915.4,0
2914.77,0
2914.13,0
2913.49,0
2912.85,0
2912.22,0
2911.58,0
2910.94,0
2910.3,0
2909.66,0
2909.03,0
2908.39,0
2907.75,0
2907.11,0
2906.47,0
2905.83,0
2905.19,0
2904.56,0
2903.92,0
2903.28,0
2902.64,0
2902,0
2901.36,0
2900.72,0
2900.08,0
2899.44,0
2898.8,0
2898.16,0
2897.52,0
2896.88,0
2896.24,0
2895.6,0
2894.96,0
2894.32,0
2893.68,0
2893.04,0
2892.4,0
2891.76,0
2891.12,0
2890.48,0
2889.83,0
2889.19,0
2888.55,0
2887.91,0
2887.27,0
2886.63,0
2885.98,0
2885.34,0
2884.7,0
2884.06,0
2883.42,0
2882.77,0
2882.13,0
2881.49,0
2880.85,0
2880.2,0
2879.56,0
2878.92,0
2878.28,0
2877.63,0
2876.99,0
2876.35,0
2875.7,0
2875.06,0
2874.42,0
2873.77,0
2873.13,0
2872.48,0
2871.84,0
2871.2,0
2870.55,0
2869.91,0
2869.26,0
2868.62,0
2867.98,0
2867.33,0
2866.69,0
2866.04,0
2865.4,0
2864.75,0
2864.11,0
2863.46,0
2862.82,0
2862.17,0
2861.52,0
2860.88,0
2860.23,0
2859.59,0
2858.94,0
2858.29,0
2857.65,0
2857,0
2856.36,0
2855.71,0
2855.06,0
2854.42,0
2853.77,0
2853.12,0
2852.48,0
2851.83,0
2851.18,0
2850.53,0
2849.89,0
2849.24,0
2848.59,0
2847.94,0
2847.3,0
2846.65,0
2846,0
2845.35,0
2844.7,0
2844.06,0
2843.41,0
2842.76,0
2842.11,0
2841.46,0
2840.81,0
2840.16,0
2839.52,0
2838.87,0
2838.22,0
2837.57,0
2836.92,0
2836.27,0
2835.62,0
2834.97,0
2834.32,0
2833.67,0
2833.02,0
2832.37,0
2831.72,0
2831.07,0
2830.42,0
2829.77,0
2829.12,0
2828.47,0
2827.82,0
2827.17,0
2826.51,0
2825.86,0
2825.21,0
2824.56,0
2823.91,0
2823.26,0
2822.61,0
2821.96,0
2821.3,0
2820.65,0
2820,0
2819.35,0
2818.7,0
2818.04,0
2817.39,0
2816.74,0
2816.09,0
2815.43,0
2814.78,0
2814.13,0
2813.47,0
2812.82,0
2812.17,0
2811.51,0
2810.86,0
2810.21,0
2809.55,0
2808.9,0
2808.25,0
2807.59,0
2806.94,0
2806.28,0
2805.63,0
2804.98,0
2804.32,0
2803.67,0
2803.01,0
2802.36,0
2801.7,0
2801.05,0
2800.39,0
2799.74,0
2799.08,0
2798.43,0
2797.77,0
2797.12,0
2796.46,0
2795.8,0
2795.15,0
2794.49,0
2793.84,0
2793.18,0
2792.52,0
2791.87,0
2791.21,0
2790.55,0
2789.9,0
2789.24,0
2788.58,0
2787.93,0
2787.27,0
2786.61,0
2785.95,0
2785.3,0
2784.64,0
2783.98,0
2783.32,0
2782.67,0
2782.01,0
2781.35,0
2780.69,0
2780.03,0
2779.38,0
2778.72,0
2778.06,0
2777.4,0
2776.74,0
2776.08,0
2775.42,0
2774.76,0
2774.11,0
2773.45,0
2772.79,0
2772.13,0
2771.47,0
2770.81,0
2770.15,0
2769.49,0
2768.83,0
2768.17,0
2767.51,0
2766.85,0
2766.19,0
2765.53,0
2764.87,0
2764.21,0
2763.55,0
2762.88,0
2762.22,0
2761.56,0
2760.9,0
2760.24,0
2759.58,0
2758.92,0
2758.26,0
2757.59,0
2756.93,0
2756.27,0
2755.61,0
2754.95,0
2754.28,0
2753.62,0
2752.96,0
2752.3,0
2751.63,0
2750.97,0
2750.31,0
2749.64,0
2748.98,0
2748.32,0
2747.65,0
2746.99,0
2746.33,0
2745.66,0
2745,0
2744.34,0
2743.67,0
2743.01,0
2742.34,0
2741.68,0
2741.02,0
2740.35,0
2739.69,0
2739.02,0
2738.36,0
2737.69,0
2737.03,0
2736.36,0
2735.7,0
2735.03,0
2734.37,0
2733.7,0
2733.04,0
2732.37,0
2731.7,0
2731.04,0
2730.37,0
2729.71,0
2729.04,0
2728.37,0
2727.71,0
2727.04,0
2726.37,0
2725.71,0
2725.04,0
2724.37,0
2723.71,0
2723.04,0
2722.37,0
2721.71,0
2721.04,0
2720.37,0
2719.7,0
2719.03,0
2718.37,0
2717.7,0
2717.03,0
2716.36,0
2715.69,0
2715.03,0
2714.36,0
2713.69,0
2713.02,0
2712.35,0
2711.68,0
2711.01,0
2710.34,0
2709.67,0
2709.01,0
2708.34,0
2707.67,0
2707,0
2706.33,0
2705.66,0
2704.99,0
2704.32,0
2703.65,0
2702.98,0
2702.31,0
2701.64,0
2700.96,0
2700.29,0
2699.62,0
2698.95,0
2698.28,0
2697.61,0
2696.94,0
2696.27,0
2695.6,0
2694.92,0
2694.25,0
2693.58,0
2692.91,0
2692.24,0
2691.57,0
2690.89,0
2690.22,0
2689.55,0
2688.88,0
2688.2,0
2687.53,0
2686.86,0
2686.18,0
2685.51,0
2684.84,0
2684.17,0
2683.49,0
2682.82,0
2682.14,0
2681.47,0
2680.8,0
2680.12,0
2679.45,0
2678.78,0
2678.1,0
2677.43,0
2676.75,0
2676.08,0
2675.4,0
2674.73,0
2674.05,0
2673.38,0
2672.7,0
2672.03,0
2671.35,0
2670.68,0
2670,0
2669.33,0
2668.65,0
2667.98,0
2667.3,0
2666.62,0
2665.95,0
2665.27,0
2664.59,0
2663.92,0
2663.24,0
2662.56,0
2661.89,0
2661.21,0
2660.53,0
2659.86,0
2659.18,0
2658.5,0
2657.83,0
2657.15,0
2656.47,0
2655.79,0
2655.11,0
2654.44,0
2653.76,0
2653.08,0
2652.4,0
2651.72,0
2651.05,0
2650.37,0
2649.69,0
2649.01,0
2648.33,0
2647.65,0
2646.97,0
2646.29,0
2645.61,0
2644.93,0
2644.25,0
2643.57,0
2642.9,0
2642.22,0
2641.54,0
2640.86,0
2640.18,0
2639.49,0
2638.81,0
2638.13,0
2637.45,0
2636.77,0
2636.09,0
2635.41,0
2634.73,0
2634.05,0
2633.37,0
2632.69,0
2632,0
2631.32,0
2630.64,0
2629.96,0
2629.28,0
2628.6,0
2627.91,0
2627.23,0
2626.55,0
2625.87,0
2625.18,0
2624.5,0
2623.82,0
2623.14,0
2622.45,0
2621.77,0
2621.09,0
2620.4,0
2619.72,0
2619.04,0
2618.35,0
2617.67,0
2616.98,0
2616.3,0
2615.62,0
2614.93,0
2614.25,0
2613.56,0
2612.88,0
2612.19,0
2611.51,0
2610.83,0
2610.14,0
2609.46,0
2608.77,0
2608.08,0
2607.4,0
2606.71,0
2606.03,0
2605.34,0
2604.66,0
2603.97,0
2603.28,0
2602.6,0
2601.91,0
2601.23,0
2600.54,0
2599.85,0
2599.17,0
2598.48,0
2597.79,0
2597.11,0
2596.42,0
2595.73,0
2595.04,0
2594.36,0
2593.67,0
2592.98,0
2592.29,0
2591.61,0
2590.92,0
2590.23,0
2589.54,0
2588.85,0
2588.16,0
2587.48,0
2586.79,0
2586.1,0
2585.41,0
2584.72,0
2584.03,0
2583.34,0
2582.65,0
2581.96,0
2581.27,0
2580.58,0
2579.9,0
2579.21,0
2578.52,0
2577.83,0
2577.14,0
2576.44,0
2575.75,0
2575.06,0
2574.37,0
2573.68,0
2572.99,0
2572.3,0
2571.61,0
2570.92,0
2570.23,0
2569.54,0
2568.84,0
2568.15,0
2567.46,0
2566.77,0
2566.08,0
2565.39,0
2564.69,0
2564,0
2563.31,0
2562.62,0
2561.92,0
2561.23,0
2560.54,0
2559.85,0
2559.15,0
2558.46,0
2557.77,0
2557.07,0
2556.38,0
2555.69,0
2554.99,0
2554.3,0
2553.6,0
2552.91,0
2552.22,0
2551.52,0
2550.83,0
2550.13,0
2549.44,0
2548.74,0
2548.05,0
2547.35,0
2546.66,0
2545.96,0
2545.27,0
2544.57,0
2543.88,0
2543.18,0
2542.49,0
2541.79,0
2541.1,0
2540.4,0
2539.7,0
2539.01,0
2538.31,0
2537.61,0
2536.92,0
2536.22,0
2535.52,0
2534.83,0
2534.13,0
2533.43,0
2532.74,0
2532.04,0
2531.34,0
2530.64,0
2529.95,0
2529.25,0
2528.55,0
2527.85,0
2527.15,0
2526.46,0
2525.76,0
2525.06,0
2524.36,0
2523.66,0
2522.96,0
2522.26,0
2521.57,0
2520.87,0
2520.17,0
2519.47,0
2518.77,0
2518.07,0
2517.37,0
2516.67,0
2515.97,0
2515.27,0
2514.57,0
2513.87,0
2513.17,0
2512.47,0
2511.77,0
2511.07,0
2510.37,0
2509.66,0
2508.96,0
2508.26,0
2507.56,0
2506.86,0
2506.16,0
2505.46,0
2504.76,0
2504.05,0
2503.35,0
2502.65,0
2501.95,0
2501.25,0
2500.54,0
2499.84,0
2499.14,0
2498.44,0
2497.73,0
2497.03,0
2496.33,0
2495.62,0
2494.92,0
2494.22,0
2493.51,0
2492.81,0
2492.11,0
2491.4,0
2490.7,0
2489.99,0
2489.29,0
2488.59,0
2487.88,0
2487.18,0
2486.47,0
2485.77,0
2485.06,0
2484.36,0
2483.65,0
2482.95,0
2482.24,0
2481.54,0
2480.83,0
2480.13,0
2479.42,0
2478.71,0
2478.01,0
2477.3,0
2476.6,0
2475.89,0
2475.18,0
2474.48,0
2473.77,0
2473.06,0
2472.36,0
2471.65,0
2470.94,0
2470.24,0
2469.53,0
2468.82,0
2468.11,0
2467.41,0
2466.7,0
2465.99,0
2465.28,0
2464.57,0
2463.87,0
2463.16,0
2462.45,0
2461.74,0
2461.03,0
2460.32,0
2459.61,0
2458.9,0
2458.2,0
2457.49,0
2456.78,0
2456.07,0
2455.36,0
2454.65,0
2453.94,0
2453.23,0
2452.52,0
2451.81,0
2451.1,0
2450.39,0
2449.68,0
2448.97,0
2448.26,0
2447.55,0
2446.83,0
2446.12,0
2445.41,0
2444.7,0
2443.99,0
2443.28,0
2442.57,0
2441.85,0
2441.14,0
2440.43,0
2439.72,0
2439.01,0
2438.29,0
2437.58,0
2436.87,0
2436.16,0
2435.44,0
2434.73,0
2434.02,0
2433.3,0
2432.59,0
2431.88,0
2431.16,0
2430.45,0
2429.74,0
2429.02,0
2428.31,0
2427.6,0
2426.88,0
2426.17,0
2425.45,0
2424.74,0
2424.02,0
2423.31,0
2422.59,0
2421.88,0
2421.16,0
2420.45,0
2419.73,0
2419.02,0
2418.3,0
2417.59,0
2416.87,0
2416.16,0
2415.44,0
2414.72,0
2414.01,0
2413.29,0
2412.57,0
2411.86,0
2411.14,0
2410.42,0
2409.71,0
2408.99,0
2408.27,0
2407.56,0
2406.84,0
2406.12,0
2405.4,0
2404.69,0
2403.97,0
2403.25,0
2402.53,0
2401.81,0
2401.1,0
2400.38,0
2399.66,0
2398.94,0
2398.22,0
2397.5,0
2396.78,0
2396.06,0
2395.35,0
2394.63,0
2393.91,0
2393.19,0
2392.47,0
2391.75,0
2391.03,0
2390.31,0
2389.59,0
2388.87,0
2388.15,0
2387.43,0
2386.71,0
2385.98,0
2385.26,0
2384.54,0
2383.82,0
2383.1,0
2382.38,0
2381.66,0
2380.94,0
2380.21,0
2379.49,0
2378.77,0
2378.05,0
2377.33,0
2376.6,0
2375.88,0
2375.16,0
2374.44,0
2373.71,0
2372.99,0
2372.27,0
2371.55,0
2370.82,0
2370.1,0
2369.38,0
2368.65,0
2367.93,0
2367.21,0
2366.48,0
2365.76,0
2365.03,0
2364.31,0
2363.58,0
2362.86,0
2362.14,0
2361.41,0
2360.69,0
2359.96,0
2359.24,0
2358.51,0
2357.79,0
2357.06,0
2356.33,0
2355.61,0
2354.88,0
2354.16,0
2353.43,0
2352.71,0
2351.98,0
2351.25,0
2350.53,0
2349.8,0
2349.07,0
2348.35,0
2347.62,0
2346.89,0
2346.17,0
2345.44,0
2344.71,0
2343.98,0
2343.26,0
2342.53,0
2341.8,0
2341.07,0
2340.34,0
2339.62,0
2338.89,0
2338.16,0
2337.43,0
2336.7,0
2335.97,0
2335.24,0
2334.52,0
2333.79,0
2333.06,0
2332.33,0
2331.6,0
2330.87,0
2330.14,0
2329.41,0
2328.68,0
2327.95,0
2327.22,0
2326.49,0
2325.76,0
2325.03,0
2324.3,0
2323.57,0
2322.83,0
2322.1,0
2321.37,0
2320.64,0
2319.91,0
2319.18,0
2318.45,0
2317.71,0
2316.98,0
2316.25,0
2315.52,0
2314.79,0
2314.05,0
2313.32,0
2312.59,0
2311.86,0
2311.12,0
2310.39,0
2309.66,0
2308.92,0
2308.19,0
2307.46,0
2306.72,0
2305.99,0
2305.26,0
2304.52,0
2303.79,0
2303.05,0
2302.32,0
2301.59,0
2300.85,0
2300.12,0
2299.38,0
2298.65,0
2297.91,0
2297.18,0
2296.44,0
2295.71,0
2294.97,0
2294.24,0
2293.5,0
2292.76,0
2292.03,0
2291.29,0
2290.56,0
2289.82,0
2289.08,0
2288.35,0
2287.61,0
2286.87,0
2286.14,0
2285.4,0
2284.66,0
2283.93,0
2283.19,0
2282.45,0
2281.71,0
2280.98,0
2280.24,0
2279.5,0
2278.76,0
2278.02,0
2277.29,0
2276.55,0
2275.81,0
2275.07,0
2274.33,0
2273.59,0
2272.85,0
2272.11,0
2271.37,0
2270.64,0
2269.9,0
2269.16,0
2268.42,0
2267.68,0
2266.94,0
2266.2,0
2265.46,0
2264.72,0
2263.98,0
2263.23,0
2262.49,0
2261.75,0
2261.01,0
2260.27,0
2259.53,0
2258.79,0
2258.05,0
2257.31,0
2256.56,0
2255.82,0
2255.08,0
2254.34,0
2253.6,0
2252.85,0
2252.11,0
2251.37,0
2250.63,0
2249.88,0
2249.14,0
2248.4,0
2247.65,0
2246.91,0
2246.17,0
2245.42,0
2244.68,0
2243.94,0
2243.19,0
2242.45,0
2241.71,0
2240.96,0
2240.22,0
2239.47,0
2238.73,0
2237.98,0
2237.24,0
2236.49,0
2235.75,0
2235,0
2234.26,0
2233.51,0
2232.77,0
2232.02,0
2231.28,0
2230.53,0
2229.78,0
2229.04,0
2228.29,0
2227.54,0
2226.8,0
2226.05,0
2225.3,0
2224.56,0
2223.81,0
2223.06,0
2222.32,0
2221.57,0
2220.82,0
2220.07,0
2219.33,0
2218.58,0
2217.83,0
2217.08,0
2216.33,0
2215.59,0
2214.84,0
2214.09,0
2213.34,0
2212.59,0
2211.84,0
2211.09,0
2210.34,0
2209.59,0
2208.84,0
2208.09,0
2207.35,0
2206.6,0
2205.85,0
2205.1,0
2204.35,0
2203.59,0
2202.84,0
2202.09,0
2201.34,0
2200.59,0
2199.84,0
2199.09,0
2198.34,0
2197.59,0
2196.84,0
2196.09,0
2195.33,0
2194.58,0
2193.83,0
2193.08,0
2192.33,0
2191.57,0
2190.82,0
2190.07,0
2189.32,0
2188.56,0
2187.81,0
2187.06,0
2186.3,0
2185.55,0
2184.8,0
2184.04,0
2183.29,0
2182.54,0
2181.78,0
2181.03,0
2180.27,0
2179.52,0
2178.77,0
2178.01,0
2177.26,0
2176.5,0
2175.75,0
2174.99,0
2174.24,0
2173.48,0
2172.73,0
2171.97,0
2171.22,0
2170.46,0
2169.7,0
2168.95,0
2168.19,0
2167.44,0
2166.68,0
2165.92,0
2165.17,0
2164.41,0
2163.65,0
2162.9,0
2162.14,0
2161.38,0
2160.62,0
2159.87,0
2159.11,0
2158.35,0
2157.59,0
2156.83,0
2156.08,0
2155.32,0
2154.56,0
2153.8,0
2153.04,0
2152.28,0
2151.53,0
2150.77,0
2150.01,0
2149.25,0
2148.49,0
2147.73,0
2146.97,0
2146.21,0
2145.45,0
2144.69,0
2143.93,0
2143.17,0
2142.41,0
2141.65,0
2140.89,0
2140.13,0
2139.37,0
2138.61,0
2137.85,0
2137.08,0
2136.32,0
2135.56,0
2134.8,0
2134.04,0
2133.28,0
2132.51,0
2131.75,0
2130.99,0
2130.23,0
2129.47,0
2128.7,0
2127.94,0
2127.18,0
2126.41,0
2125.65,0
2124.89,0
2124.12,0
2123.36,0
2122.6,0
2121.83,0
2121.07,0
2120.31,0
2119.54,0
2118.78,0
2118.01,0
2117.25,0
2116.48,0
2115.72,0
2114.95,0
2114.19,0
2113.42,0
2112.66,0
2111.89,0
2111.13,0
2110.36,0
2109.6,0
2108.83,0
2108.07,0
2107.3,0
2106.53,0
2105.77,0
2105,0
2104.23,0
2103.47,0
2102.7,0
2101.93,0
2101.17,0
2100.4,0
2099.63,0
2098.86,0
2098.1,0
2097.33,0
2096.56,0
2095.79,0
2095.02,0
2094.26,0
2093.49,0
2092.72,0
2091.95,0
2091.18,0
2090.41,0
2089.64,0
2088.87,0
2088.11,0
2087.34,0
2086.57,0
2085.8,0
2085.03,0
2084.26,0
2083.49,0
2082.72,0
2081.95,0
2081.18,0
2080.41,0
2079.63,0
2078.86,0
2078.09,0
2077.32,0
2076.55,0
2075.78,0
2075.01,0
2074.24,0
2073.47,0
2072.69,0
2071.92,0
2071.15,0
2070.38,0
2069.6,0
2068.83,0
2068.06,0
2067.29,0
2066.51,0
2065.74,0
2064.97,0
2064.19,0
2063.42,0
2062.65,0
2061.87,0
2061.1,0
2060.33,0
2059.55,0
2058.78,0
2058,0
2057.23,0
2056.46,0
2055.68,0
2054.91,0
2054.13,0
2053.36,0
2052.58,0
2051.81,0
2051.03,0
2050.26,0
2049.48,0
2048.7,0
2047.93,0
2047.15,0
2046.38,0
2045.6,0
2044.82,0
2044.05,0
2043.27,0
2042.49,0
2041.72,0
2040.94,0
2040.16,0
2039.38,0
2038.61,0
2037.83,0
2037.05,0
2036.27,0
2035.5,0
2034.72,0
2033.94,0
2033.16,0
2032.38,0
2031.6,0
2030.83,0
2030.05,0
2029.27,0
2028.49,0
2027.71,0
2026.93,0
2026.15,0
2025.37,0
2024.59,0
2023.81,0
2023.03,0
2022.25,0
2021.47,0
2020.69,0
2019.91,0
2019.13,0
2018.35,0
2017.57,0
2016.79,0
2016,0
2015.22,0
2014.44,0
2013.66,0
2012.88,0
2012.1,0
2011.31,0
2010.53,0
2009.75,0
2008.97,0
2008.19,0
2007.4,0
2006.62,0
2005.84,0
2005.05,0
2004.27,0
2003.49,0
2002.7,0
2001.92,0
2001.14,0
2000.35,0
1999.57,0
1998.79,0
1998,0
1997.22,0
1996.43,0
1995.65,0
1994.86,0
1994.08,0
1993.29,0
1992.51,0
1991.72,0
1990.94,0
1990.15,0
1989.37,0
1988.58,0
1987.8,0
1987.01,0
1986.22,0
1985.44,0
1984.65,0
1983.86,0
1983.08,0
1982.29,0
1981.5,0
1980.72,0
1979.93,0
1979.14,0
1978.35,0
1977.57,0
1976.78,0
1975.99,0
1975.2,0
1974.42,0
1973.63,0
1972.84,0
1972.05,0
1971.26,0
1970.47,0
1969.68,0
1968.89,0
1968.11,0
1967.32,0
1966.53,0
1965.74,0
1964.95,0
1964.16,0
1963.37,0
1962.58,0
1961.79,0
1961,0
1960.21,0
1959.42,0
1958.63,0
1957.83,0
1957.04,0
1956.25,0
1955.46,0
1954.67,0
1953.88,0
1953.09,0
1952.3,0
1951.5,0
1950.71,0
1949.92,0
1949.13,0
1948.33,0
1947.54,0
1946.75,0
1945.96,0
1945.16,0
1944.37,0
1943.58,0
1942.78,0
1941.99,0
1941.2,0
1940.4,0
1939.61,0
1938.81,0
1938.02,0
1937.23,0
1936.43,0
1935.64,0
1934.84,0
1934.05,0
1933.25,0
1932.46,0
1931.66,0
1930.87,0
1930.07,0
1929.28,0
1928.48,0
1927.68,0
1926.89,0
1926.09,0
1925.3,0
1924.5,0
1923.7,0
1922.91,0
1922.11,0
1921.31,0
1920.52,0
1919.72,0
1918.92,0
1918.12,0
1917.33,0
1916.53,0
1915.73,0
1914.93,0
1914.13,0
1913.34,0
1912.54,0
1911.74,0
1910.94,0
1910.14,0
1909.34,0
1908.54,0
1907.74,0
1906.94,0
1906.14,0
1905.35,0
1904.55,0
1903.75,0
1902.95,0
1902.15,0
1901.35,0
1900.54,0
1899.74,0
1898.94,0
1898.14,0
1897.34,0
1896.54,0
1895.74,0
1894.94,0
1894.14,0
1893.33,0
1892.53,0
1891.73,0
1890.93,0
1890.13,0
1889.32,0
1888.52,0
1887.72,0
1886.92,0
1886.11,0
1885.31,0
1884.51,0
1883.7,0
1882.9,0
1882.1,0
1881.29,0
1880.49,0
1879.69,0
1878.88,0
1878.08,0
1877.27,0
1876.47,0
1875.66,0
1874.86,0
1874.06,0
1873.25,0
1872.45,0
1871.64,0
1870.83,0
1870.03,0
1869.22,0
1868.42,0
1867.61,0
1866.81,0
1866,0
1865.19,0
1864.39,0
1863.58,0
1862.77,0
1861.97,0
1861.16,0
1860.35,0
1859.54,0
1858.74,0
1857.93,0
1857.12,0
1856.31,0
1855.51,0
1854.7,0
1853.89,0
1853.08,0
1852.27,0
1851.46,0
1850.66,0
1849.85,0
1849.04,0
1848.23,0
1847.42,0
1846.61,0
1845.8,0
1844.99,0
1844.18,0
1843.37,0
1842.56,0
1841.75,0
1840.94,0
1840.13,0
1839.32,0
1838.51,0
1837.7,0
1836.89,0
1836.07,0
1835.26,0
1834.45,0
1833.64,0
1832.83,0
1832.02,0
1831.2,0
1830.39,0
1829.58,0
1828.77,0
1827.95,0
1827.14,0
1826.33,0
1825.52,0
1824.7,0
1823.89,0
1823.08,0
1822.26,0
1821.45,0
1820.63,0
1819.82,0
1819.01,0
1818.19,0
1817.38,0
1816.56,0
1815.75,0
1814.93,0
1814.12,0
1813.3,0
1812.49,0
1811.67,0
1810.86,0
1810.04,0
1809.23,0
1808.41,0
1807.59,0
1806.78,0
1805.96,0
1805.15,0
1804.33,0
1803.51,0
1802.7,0
1801.88,0
1801.06,0
1800.24,0
1799.43,0
1798.61,0
1797.79,0
1796.97,0
1796.16,0
1795.34,0
1794.52,0
1793.7,0
1792.88,0
1792.06,0
1791.24,0
1790.43,0
1789.61,0
1788.79,0
1787.97,0
1787.15,0
1786.33,0
1785.51,0
1784.69,0
1783.87,0
1783.05,0
1782.23,0
1781.41,0
1780.59,0
1779.77,0
1778.95,0
1778.13,0
1777.3,0
1776.48,0
1775.66,0
1774.84,0
1774.02,0
1773.2,0
1772.37,0
1771.55,0
1770.73,0
1769.91,0
1769.08,0
1768.26,0
1767.44,0
1766.62,0
1765.79,0
1764.97,0
1764.15,0
1763.32,0
1762.5,0
1761.68,0
1760.85,0
1760.03,0
1759.2,0
1758.38,0
1757.55,0
1756.73,0
1755.91,0
1755.08,0
1754.26,0
1753.43,0
1752.6,0
1751.78,0
1750.95,0
1750.13,0
1749.3,0
1748.48,0
1747.65,0
1746.82,0
1746,0
1745.17,0
1744.34,0
1743.52,0
1742.69,0
1741.86,0
1741.04,0
1740.21,0
1739.38,0
1738.55,0
1737.72,0
1736.9,0
1736.07,0
1735.24,0
1734.41,0
1733.58,0
1732.75,0
1731.93,0
1731.1,0
1730.27,0
1729.44,0
1728.61,0
1727.78,0
1726.95,0
1726.12,0
1725.29,0
1724.46,0
1723.63,0
1722.8,0
1721.97,0
1721.14,0
1720.31,0
1719.48,0
1718.65,0
1717.81,0
1716.98,0
1716.15,0
1715.32,0
1714.49,0
1713.66,0
1712.82,0
1711.99,0
1711.16,0
1710.33,0
1709.49,0
1708.66,0
1707.83,0
1707,0
1706.16,0
1705.33,0
1704.5,0
1703.66,0
1702.83,0
1701.99,0
1701.16,0
1700.33,0
1699.49,0
1698.66,0
1697.82,0
1696.99,0
1696.15,0
1695.32,0
1694.48,0
1693.65,0
1692.81,0
1691.98,0
1691.14,0
1690.3,0
1689.47,0
1688.63,0
1687.8,0
1686.96,0
1686.12,0
1685.29,0
1684.45,0
1683.61,0
1682.78,0
1681.94,0
1681.1,0
1680.26,0
1679.43,0
1678.59,0
1677.75,0
1676.91,0
1676.07,0
1675.23,0
1674.4,0
1673.56,0
1672.72,0
1671.88,0
1671.04,0
1670.2,0
1669.36,0
1668.52,0
1667.68,0
1666.84,0
1666,0
1665.16,0
1664.32,0
1663.48,0
1662.64,0
1661.8,0
1660.96,0
1660.12,0
1659.28,0
1658.44,0
1657.59,0
1656.75,0
1655.91,0
1655.07,0
1654.23,0
1653.38,0
1652.54,0
1651.7,0
1650.86,0
1650.01,0
1649.17,0
1648.33,0
1647.48,0
1646.64,0
1645.8,0
1644.95,0
1644.11,0
1643.27,0
1642.42,0
1641.58,0
1640.73,0
1639.89,0
1639.04,0
1638.2,0
1637.36,0
1636.51,0
1635.67,0
1634.82,0
1633.97,0
1633.13,0
1632.28,0
1631.44,0
1630.59,0
1629.74,0
1628.9,0
1628.05,0
1627.2,0
1626.36,0
1625.51,0
1624.66,0
1623.82,0
1622.97,0
1622.12,0
1621.27,0
1620.43,0
1619.58,0
1618.73,0
1617.88,0
1617.03,0
1616.19,0
1615.34,0
1614.49,0
1613.64,0
1612.79,0
1611.94,0
1611.09,0
1610.24,0
1609.39,0
1608.54,0
1607.69,0.0172402400134458
1606.84,0.0183896398596854
1605.99,0.0195107762997303
1605.14,0.0213385598095432
1604.29,0.0228230470360113
1603.44,0.025241786757222
1602.59,0.0279317363658275
1601.74,0.0287505546414904
1600.89,0.0319543835406617
1600.04,0.0353945448713463
1599.18,0.0389818302126333
1598.33,0.0428515531440699
1597.48,0.0470145954205944
1596.63,0.0518121134412202
1595.78,0.0570252795535138
1594.92,0.0628918786857254
1594.07,0.0694180032588332
1593.22,0.0766221636374173
1592.37,0.0847355086850106
1591.51,0.0940297299821245
1590.66,0.104762713864573
1589.81,0.117604182274359
1588.96,0.133210085193203
1588.1,0.152682182134397
1587.25,0.177065296064227
1586.39,0.208153591547068
1585.54,0.247879340427958
1584.69,0.297940146821537
1583.83,0.35993461223341
1582.98,0.434160200466688
1582.12,0.518965013454814
1581.27,0.611049999777446
1580.42,0.705194189698882
1579.56,0.795072040468619
1578.71,0.874158487792754
1577.85,0.936738289168536
1576.99,0.979277379738521
1576.14,1
1575.28,0.999759541591628
1574.43,0.98061897146321
1573.57,0.94566538445556
1572.72,0.897921556070467
1571.86,0.840291929369258
1571,0.775159756755553
1570.15,0.704930619752282
1569.29,0.631763132742771
1568.43,0.558441792062572
1567.58,0.487059103048415
1566.72,0.420114187006384
1565.86,0.359258210794283
1565.01,0.305685569531187
1564.15,0.259674421482192
1563.29,0.220797551990025
1562.43,0.188221693433418
1561.58,0.160974719434539
1560.72,0.138245769970561
1559.86,0.119429875463185
1559,0.104019300058502
1558.14,0.0919247272792765
1557.28,0.0828173406931372
1556.42,0.0761586986151557
1555.57,0.0715797633360979
1554.71,0.0681200238459048
1553.85,0.0651545207023477
1552.99,0.0620962108678843
1552.13,0.0587211580428186
1551.27,0.0549386301927068
1550.41,0.0508093334919078
1549.55,0.0465398144265538
1548.69,0.0423254236864268
1547.83,0.038221949757585
1546.97,0.0343024780355867
1546.11,0.030518293669452
1545.25,0.0298676757030287
1544.39,0.0265104253899126
1543.53,0.023317702601912
1542.66,0.0212659441327473
1541.8,0.019240174550916
1540.94,0.0173534232739488
1540.08,0
1539.22,0
1538.36,0
1537.49,0
1536.63,0
1535.77,0
1534.91,0
1534.04,0
1533.18,0
1532.32,0
1531.46,0
1530.59,0
1529.73,0
1528.87,0
1528,0
1527.14,0
1526.27,0
1525.41,0
1524.55,0
1523.68,0
1522.82,0
1521.95,0
1521.09,0
1520.22,0
1519.36,0
1518.49,0
1517.63,0
1516.76,0
1515.89,0
1515.03,0
1514.16,0
1513.3,0
1512.43,0
1511.56,0
1510.7,0
1509.83,0
1508.96,0
1508.1,0
1507.23,0
1506.36,0
1505.49,0
1504.63,0
1503.76,0
1502.89,0
1502.02,0
1501.15,0
1500.29,0
1499.42,0
1498.55,0
1497.68,0
1496.81,0
1495.94,0
1495.07,0
1494.2,0
1493.33,0
1492.46,0
1491.59,0
1490.72,0
1489.85,0
1488.98,0
1488.11,0
1487.24,0
1486.37,0
1485.5,0
1484.63,0
1483.76,0
1482.88,0
1482.01,0
1481.14,0
1480.27,0
1479.4,0
1478.53,0
1477.65,0
1476.78,0
1475.91,0
1475.03,0
1474.16,0
1473.29,0
1472.42,0
1471.54,0
1470.67,0
1469.79,0
1468.92,0
1468.05,0
1467.17,0
1466.3,0
1465.42,0
1464.55,0
1463.67,0
1462.8,0
1461.92,0
1461.05,0
1460.17,0
1459.3,0
1458.42,0
1457.55,0
1456.67,0
1455.79,0
1454.92,0
1454.04,0
1453.17,0
1452.29,0
1451.41,0
1450.53,0
1449.66,0
1448.78,0
1447.9,0
1447.02,0
1446.15,0
1445.27,0
1444.39,0
1443.51,0
1442.63,0
1441.76,0
1440.88,0
1440,0
1439.12,0
1438.24,0
1437.36,0
1436.48,0
1435.6,0
1434.72,0
1433.84,0
1432.96,0
1432.08,0
1431.2,0
1430.32,0
1429.44,0
1428.56,0
1427.68,0
1426.8,0
1425.91,0
1425.03,0
1424.15,0
1423.27,0
1422.39,0
1421.51,0
1420.62,0
1419.74,0
1418.86,0
1417.98,0
1417.09,0
1416.21,0
1415.33,0
1414.44,0
1413.56,0
1412.68,0
1411.79,0
1410.91,0
1410.02,0
1409.14,0
1408.26,0
1407.37,0
1406.49,0
1405.6,0
1404.72,0
1403.83,0
1402.95,0
1402.06,0
1401.18,0
1400.29,0
1399.4,0
1398.52,0
1397.63,0
1396.75,0
1395.86,0
1394.97,0
1394.08,0
1393.2,0
1392.31,0
1391.42,0
1390.54,0
1389.65,0
1388.76,0
1387.87,0
1386.98,0
1386.1,0
1385.21,0
1384.32,0
1383.43,0
1382.54,0
1381.65,0
1380.76,0
1379.87,0
1378.98,0
1378.09,0
1377.21,0
1376.32,0
1375.43,0
1374.53,0
1373.64,0
1372.75,0
1371.86,0
1370.97,0
1370.08,0
1369.19,0
1368.3,0
1367.41,0
1366.52,0
1365.62,0
1364.73,0
1363.84,0
1362.95,0
1362.05,0
1361.16,0
1360.27,0
1359.38,0
1358.48,0
1357.59,0
1356.7,0
1355.8,0
1354.91,0
1354.02,0
1353.12,0
1352.23,0
1351.33,0
1350.44,0
1349.54,0
1348.65,0
1347.75,0
1346.86,0
1345.96,0
1345.07,0
1344.17,0
1343.28,0
1342.38,0
1341.49,0
1340.59,0
1339.69,0
1338.8,0
1337.9,0
1337,0
1336.11,0
1335.21,0
1334.31,0
1333.41,0
1332.52,0
1331.62,0
1330.72,0
1329.82,0
1328.92,0
1328.03,0
1327.13,0
1326.23,0
1325.33,0
1324.43,0
1323.53,0
1322.63,0
1321.73,0
1320.83,0
1319.93,0
1319.03,0
1318.13,0
1317.23,0
1316.33,0
1315.43,0
1314.53,0
1313.63,0
1312.73,0
1311.83,0
1310.93,0
1310.03,0
1309.12,0
1308.22,0
1307.32,0
1306.42,0
1305.52,0
1304.61,0
1303.71,0
1302.81,0
1301.9,0
1301,0
1300.1,0
1299.19,0
1298.29,0
1297.39,0
1296.48,0
1295.58,0
1294.68,0
1293.77,0
1292.87,0
1291.96,0
1291.06,0
1290.15,0
1289.25,0
1288.34,0
1287.44,0
1286.53,0
1285.62,0
1284.72,0
1283.81,0
1282.91,0
1282,0
1281.09,0
1280.19,0
1279.28,0
1278.37,0
1277.46,0
1276.56,0
1275.65,0
1274.74,0
1273.83,0
1272.93,0
1272.02,0
1271.11,0
1270.2,0
1269.29,0.0182362222633921
1268.38,0.0197083304517632
1267.47,0.0209086009031182
1266.57,0.0230425360482107
1265.66,0.0220514911875802
1264.75,0.0232703281392453
1263.84,0.0241034536233548
1262.93,0.0247216840507875
1262.02,0.0253031967327645
1261.11,0.0257263292307131
1260.2,0.026111832683081
1259.29,0.026250668167741
1258.38,0.0260726370979661
1257.47,0.0253701581475119
1256.55,0.0242238173920222
1255.64,0.0227590308107545
1254.73,0.0236413316865532
1253.82,0.0216621192215246
1252.91,0.0197706103899499
1252,0.0193426100413811
1251.09,0.0189056518858361
1250.17,0.0173715243659188
1249.26,0
1248.35,0
1247.44,0
1246.52,0
1245.61,0
1244.7,0
1243.78,0
1242.87,0
1241.96,0
1241.04,0
1240.13,0
1239.22,0
1238.3,0
1237.39,0
1236.47,0
1235.56,0
1234.64,0
1233.73,0
1232.81,0
1231.9,0
1230.98,0
1230.07,0
1229.15,0
1228.24,0
1227.32,0
1226.4,0
1225.49,0
1224.57,0
1223.65,0
1222.74,0
1221.82,0
1220.9,0
1219.99,0
1219.07,0
1218.15,0
1217.23,0
1216.31,0
1215.4,0
1214.48,0
1213.56,0
1212.64,0
1211.72,0
1210.8,0
1209.88,0
1208.96,0
1208.05,0
1207.13,0
1206.21,0
1205.29,0
1204.37,0
1203.45,0
1202.53,0
1201.6,0
1200.68,0
1199.76,0
1198.84,0
1197.92,0
1197,0
1196.08,0
1195.16,0
1194.23,0.0190924611791079
1193.31,0.0200393059662354
1192.39,0.0223999199272108
1191.47,0.0296506712410447
1190.54,0.0308365533672318
1189.62,0.0430823546944327
1188.7,0.0582881065521245
1187.78,0.0762671267929925
1186.85,0.09642113511949
1185.93,0.117748860518624
1185.01,0.138707555054747
1184.08,0.157620549261923
1183.16,0.172586360132903
1182.23,0.182374754428781
1181.31,0.186175016556144
1180.39,0.183716822870882
1179.46,0.175460762249785
1178.54,0.162203662988225
1177.61,0.14501891844017
1176.69,0.125322332304357
1175.76,0.104283912848096
1174.84,0.0834053071663535
1173.91,0.0637880964328689
1172.98,0.0465270337872275
1172.06,0.0324198213383638
1171.13,0.0300145695823323
1170.21,0.0222874911189383
1169.28,0.020312030470055
1168.35,0.0186894967684897
1167.43,0.0184297025205311
1166.5,0.0176514182059592
1165.57,0.0173935084760247
1164.65,0.0174166093028886
1163.72,0.0174319801940693
1162.79,0.0174602624530918
1161.86,0.0172478137904492
1160.94,0
1160.01,0
1159.08,0
1158.15,0
1157.22,0
1156.29,0.0173360185442119
1155.37,0.0179671112195968
1154.44,0.0186078697233285
1153.51,0.0192849346122386
1152.58,0.0185017901996699
1151.65,0.0189839461069848
1150.72,0.019598374719988
1149.79,0.0203823092024848
1148.86,0.0200333868467497
1147.93,0.0214175487359288
1147,0.0231257768038835
1146.07,0.0221104865786806
1145.14,0.0244521062605373
1144.21,0.0270055584017115
1143.28,0.029711714669798
1142.35,0.0325168919245312
1141.41,0.0354440227024071
1140.48,0.029563462802032
1139.55,0.0324201322094094
1138.62,0.0353394848853883
1137.69,0.0383946912150892
1136.76,0.0415172319694785
1135.82,0.0446180336716208
1134.89,0.0477776774182553
1133.96,0.0510264981165116
1133.03,0.0542430029951984
1132.09,0.0573863297138428
1131.16,0.0605500441243464
1130.23,0.063814455338676
1129.29,0.0671590606818919
1128.36,0.0706942854621593
1127.43,0.0746345992723512
1126.49,0.0789773983888509
1125.56,0.083886772377122
1124.62,0.0892106585347759
1123.69,0.0949946132884232
1122.75,0.101263612483558
1121.82,0.107824048843041
1120.89,0.114424020286889
1119.95,0.120900061414971
1119.01,0.127110096584582
1118.08,0.132986943282436
1117.14,0.13825593482827
1116.21,0.143014611139633
1115.27,0.147363975442675
1114.34,0.151501670408651
1113.4,0.155814362065789
1112.46,0.160581871576956
1111.53,0.166033451625463
1110.59,0.172467229151595
1109.65,0.179847228269489
1108.72,0.187806940352819
1107.78,0.196297870419392
1106.84,0.20531167807869
1105.9,0.215084602914251
1104.97,0.225526165027349
1104.03,0.237086922128911
1103.09,0.250195291263284
1102.15,0.264841291307198
1101.21,0.280748282727177
1100.28,0.297686709291392
1099.34,0.314700352548439
1098.4,0.330828150292155
1097.46,0.345015962638265
1096.52,0.356564135750611
1095.58,0.364863571234461
1094.64,0.370350235253435
1093.7,0.365054488925219
1092.76,0.375996190802193
1091.82,0.409258897987514
1090.88,0.456744570486621
1089.94,0.501198650316209
1089,0.521409962971936
1088.06,0.497386249129926
1087.12,0.414751276318163
1086.18,0.268858842064925
1085.24,0.0976523218383231
1084.29,0
1083.35,0
1082.41,0
1081.47,0
1080.53,0
1079.58,0
1078.64,0
1077.7,0
1076.76,0
1075.81,0
1074.87,0
1073.93,0
1072.98,0
1072.04,0
1071.1,0
1070.15,0.183278386604008
1069.21,0.355957405196934
1068.26,0.494799393711848
1067.32,0.558273787605789
1066.38,0.552351637924687
1065.43,0.494472874125999
1064.49,0.408896588812236
1063.54,0.320828345545897
1062.6,0.251517858853183
1061.65,0.211425179086434
1060.7,0.195025565499649
1059.76,0.173307007630324
1058.81,0.154705202871738
1057.87,0.13820347551022
1056.92,0.123018914450839
1055.97,0.108773613184441
1055.03,0.0989009210866136
1054.08,0.089585520686135
1053.13,0.0811592818017188
1052.19,0.0734790717031454
1051.24,0.0668005764126898
1050.29,0.0609905393909443
1049.34,0.0560059872935853
1048.4,0.0516475723784258
1047.45,0.0477151599888274
1046.5,0.0442312350791221
1045.55,0.0410394226334583
1044.6,0.0380467430369478
1043.65,0.035386013558139
1042.71,0.0328909173126856
1041.76,0.0306830052092255
1040.81,0.0287516350371626
1039.86,0.0361559038899974
1038.91,0.0347706828886891
1037.96,0.033591266465675
1037.01,0.0324542100006903
1036.06,0.0311405757710576
1035.11,0.0294417229913168
1034.16,0.0276189114701415
1033.21,0.0257709127711764
1032.26,0.0241272525607874
1031.31,0.0228691369016556
1030.36,0.0220699090914912
1029.4,0.0216175171394879
1028.45,0.0244921147856251
1027.5,0.0242974348426958
1026.55,0.0239586014476227
1025.6,0.023312301835719
1024.65,0.0225897309578967
1023.69,0.0217700447117212
1022.74,0.0210088376901299
1021.79,0.0206953067892384
1020.84,0.0211860808083985
1019.88,0.0226971023440683
1018.93,0.0224595204866014
1017.98,0.0267357151389665
1017.02,0.0321740644684336
1016.07,0.0292115410612485
1015.12,0.0348653082556316
1014.16,0.0392339669685747
1013.21,0.041421419946948
1012.25,0.0410843179206446
1011.3,0.0383582419681067
1010.34,0.0336492292207712
1009.39,0.0278387202699476
1008.43,0.0308828541780204
1007.48,0.0255632914605921
1006.52,0.0243576123337004
1005.57,0.0214049130854035
1004.61,0.0197168368814187
1003.66,0.019937413248701
1002.7,0.0196361102974472
1001.74,0.0197624701171954
1000.79,0.0199861581895965
999.832,0.0199032743620594
998.875,0.0196071655255438
997.919,0.0189425472868983
996.962,0.0181017283505558
996.004,0.018393649157756
995.047,0.0175727964917347
994.089,0
993.132,0
992.174,0
991.216,0
990.258,0
989.299,0
988.341,0
987.382,0
986.423,0
985.464,0
984.505,0
983.545,0
982.586,0
981.626,0
980.666,0
979.706,0
978.746,0
977.785,0
976.824,0
975.864,0
974.903,0
973.941,0
972.98,0
972.019,0
971.057,0
970.095,0.0172950694443015
969.133,0.0174599594053074
968.171,0.0177543309041458
967.209,0.0184040206559907
966.246,0.0181086623061351
965.283,0.0190425284648014
964.32,0.0197301361393258
963.357,0.0202170856858714
962.394,0.0196051738857448
961.431,0.0196239665920033
960.467,0.0195238710929421
959.503,0.0201929661948223
958.54,0.0200222779827924
957.575,0.0198654531044575
956.611,0.019658864464508
955.647,0.0194892958506479
954.682,0.019299930878133
953.717,0.0192469345296759
952.752,0.0192252394461406
951.787,0.0190744864605388
950.822,0.0189103139049251
949.857,0.0187380367766086
948.891,0.0185722238992103
947.925,0.0183799118387737
946.959,0.0183135955276225
945.993,0.0184912593723515
945.026,0.0187026556011079
944.06,0.0189152365010785
943.093,0.0190198279478524
942.126,0.0189432359775089
941.159,0.0186008518201647
940.192,0.0181605412386253
939.225,0.0187723663668275
938.257,0.0182223968857304
937.289,0.0175931429582493
936.322,0
935.353,0
934.385,0
933.417,0
932.448,0
931.479,0
930.51,0
929.541,0
928.572,0
927.602,0
926.633,0
925.663,0
924.693,0
923.723,0
922.752,0
921.782,0
920.811,0
919.84,0
918.869,0
917.898,0
916.926,0
915.955,0
914.983,0
914.011,0
913.039,0
912.067,0
911.094,0
910.122,0
909.149,0
908.176,0
907.203,0
906.229,0
905.256,0
904.282,0
903.308,0
902.334,0
901.36,0
900.386,0
899.411,0
898.436,0
897.461,0
896.486,0
895.511,0
894.536,0
893.56,0
892.584,0
891.608,0
890.632,0
889.656,0
888.679,0
887.702,0
886.726,0
885.748,0
884.771,0
883.794,0
882.816,0
881.839,0
880.861,0
879.882,0
878.904,0
877.926,0
876.947,0
875.968,0
874.989,0
874.01,0
873.031,0
872.051,0
871.072,0
870.092,0
869.112,0
868.131,0
867.151,0
866.17,0
865.19,0
864.209,0
863.228,0
862.246,0
861.265,0
860.283,0
859.301,0
858.319,0
857.337,0
856.355,0
855.372,0
854.389,0
853.407,0
852.424,0
851.44,0
850.457,0
849.473,0
848.489,0
847.505,0
846.521,0
845.537,0.0174201351420048
844.552,0.0177748914277494
843.568,0.0182651845885304
842.583,0.0187477860664554
841.598,0.018582383622897
840.613,0.0192131953882122
839.627,0.0197267028408878
838.642,0.0205771142291269
837.656,0.0214847460746508
836.67,0.022390314757638
835.684,0.0215514322821235
834.698,0.0227676219676848
833.711,0.0241363663847531
832.724,0.0254686346702355
831.738,0.0266268449679985
830.751,0.0275053696531611
829.763,0.0281147977821388
828.776,0.0284748802383501
827.789,0.0286473279101359
826.801,0.028592309662922
825.813,0.0286038701779038
824.825,0.028648247613427
823.837,0.0286050081771904
822.848,0.0284326003796861
821.859,0.0280886874863173
820.871,0.0277060248919286
819.882,0.027210400057867
818.892,0.0265913293601577
817.903,0.0259734280763695
816.914,0.0252213807333681
815.924,0.024469269422951
814.934,0.0237708077033078
813.944,0.0230398503518438
812.954,0.0222984619755141
811.963,0.0232298576886434
810.973,0.0223205578789335
809.982,0.0211565891047509
808.991,0.0199158247201964
808,0.0189023850217428
807.008,0.0185890730120824
806.017,0.0177143115044516
805.025,0
804.033,0
803.041,0
802.049,0
801.057,0
800.064,0
799.071,0
798.078,0
797.085,0
796.092,0
795.099,0
794.105,0
793.111,0
792.117,0
791.123,0
790.128,0
789.134,0
788.139,0
787.144,0
786.149,0
785.154,0
784.158,0
783.162,0
782.167,0
781.171,0
780.174,0
779.178,0
778.181,0
777.185,0
776.188,0
775.191,0
774.193,0
773.196,0
772.198,0
771.2,0
770.202,0
769.204,0
768.206,0
767.207,0
766.208,0
765.209,0.0176682584348222
764.21,0.0183338317538463
763.211,0.0181865975539647
762.212,0.0185043075663167
761.212,0.0188220814426664
760.212,0.019380670381215
759.212,0.0201359475372756
758.212,0.0216573253933063
757.211,0.0231515443030326
756.211,0.0279505960858266
755.21,0.0324232095592315
754.209,0.0445014833721271
753.208,0.0618232442748042
752.207,0.0853578060738574
751.205,0.115691791704875
750.203,0.152915771718171
749.202,0.196625932546754
748.2,0.245677057769239
747.197,0.297532522644939
746.195,0.348800411618022
745.192,0.395039665706
744.19,0.431093501305642
743.187,0.452527946170803
742.183,0.455879425588481
741.18,0.440152781139182
740.177,0.406658297012965
739.173,0.359092002678042
738.169,0.303193025189463
737.165,0.244568371600973
736.161,0.188682776313833
735.156,0.139593321007526
734.152,0.0994798439636222
733.147,0.0689067605223249
732.142,0.0470520270852717
731.137,0.032514731105326
730.131,0.0260033081401749
729.126,0.0214915960810261
728.12,0.0180782228422906
727.114,0
726.108,0
725.102,0
724.095,0
723.089,0
722.082,0
721.075,0
720.068,0
719.06,0
718.053,0.0196533634087274
717.045,0.0219048235797936
716.037,0.0252926917157804
715.029,0.0285610976225596
714.021,0.0295303476549769
713.012,0.0320076301850671
712.004,0.0339030320794843
710.995,0.0353137460035443
709.986,0.0361863363504935
708.977,0.0364480899040419
707.967,0.0360005229998308
706.958,0.0348511776227158
705.948,0.0330044084216873
704.938,0.030558505724139
703.928,0.027528438308735
702.917,0.0259388699469164
701.907,0.0229106895076128
700.896,0.0209169024415414
699.885,0.0182092125917518
698.874,0
697.863,0
696.851,0
695.84,0
694.828,0
693.816,0
692.804,0
691.791,0
690.779,0
689.766,0
688.753,0
687.74,0
686.727,0
685.713,0
684.7,0
683.686,0
682.672,0
681.658,0
680.643,0
679.629,0
678.614,0
677.599,0
676.584,0
675.568,0
674.553,0
673.537,0
672.521,0
671.505,0
670.489,0
669.472,0
668.456,0
667.439,0
666.422,0
665.405,0
664.387,0
663.37,0
662.352,0
661.334,0
660.316,0
659.297,0
658.279,0
657.26,0
656.241,0
655.222,0
654.203,0
653.183,0
652.164,0
651.144,0
650.124,0
649.104,0
648.083,0
647.063,0
646.042,0
645.021,0
644,0
642.978,0
641.957,0
640.935,0
639.913,0
638.891,0
637.869,0
636.846,0.0189809991852259
635.824,0.0484686886624811
634.801,0.0867029939650446
633.778,0.129288551911565
632.755,0.168593603383125
631.731,0.196087494854219
630.708,0.205532256519761
629.684,0.194873849149663
628.66,0.167058074810597
627.636,0.128778713438542
626.611,0.0882905809909226
625.587,0.0525858392613573
624.562,0.0248138950115765
623.537,0
622.512,0
621.487,0
620.461,0
619.436,0
618.41,0
617.384,0
616.357,0
615.331,0
614.304,0
613.277,0
612.25,0
611.223,0
610.196,0
609.168,0
608.141,0
607.113,0
606.084,0
605.056,0
604.028,0
602.999,0
601.97,0
600.941,0
599.912,0
598.882,0
597.852,0
596.823,0
595.793,0
594.762,0
593.732,0
592.701,0
591.671,0
590.64,0
589.608,0
588.577,0
587.545,0
586.514,0
585.482,0
584.45,0
583.417,0
582.385,0
581.352,0
580.319,0
579.286,0
578.253,0
577.219,0
576.186,0
575.152,0
574.118,0
573.083,0
572.049,0
571.014,0
569.98,0
568.945,0
567.909,0
566.874,0
565.838,0
564.803,0
563.767,0
562.73,0
561.694,0
560.658,0
559.621,0
558.584,0
557.547,0
556.509,0
555.472,0
554.434,0
553.396,0
552.358,0
551.32,0
550.282,0
549.243,0
548.204,0
547.165,0
546.126,0
545.086,0
544.047,0
543.007,0
541.967,0
540.927,0
539.886,0
538.846,0
537.805,0
536.764,0
535.723,0
534.681,0
533.64,0
532.598,0
531.556,0
530.514,0
529.472,0
528.429,0
527.387,0
526.344,0
525.301,0
524.257,0
523.214,0
522.17,0
521.126,0
520.082,0
519.038,0
517.993,0
516.949,0
515.904,0
514.859,0
513.814,0
512.768,0
511.723,0
510.677,0
509.631,0
508.585,0
507.538,0
506.492,0
505.445,0
504.398,0
503.351,0
502.303,0
501.256,0
500.208,0
499.16,0
498.112,0
497.063,0
496.015,0
494.966,0
493.917,0
492.868,0
491.819,0
490.769,0
489.72,0
488.67,0
487.62,0
486.569,0
485.519,0
484.468,0
483.417,0
482.366,0
481.315,0
480.263,0
479.212,0
478.16,0
477.108,0
476.055,0
475.003,0
473.95,0
472.897,0
471.844,0
470.791,0
469.738,0
468.684,0
467.63,0
466.576,0
465.522,0
464.468,0
463.413,0
462.358,0
461.303,0
460.248,0
459.193,0
458.137,0
457.081,0
456.025,0
454.969,0
453.913,0
452.856,0
451.799,0
450.742,0
449.685,0
448.628,0
447.57,0
446.512,0
445.454,0
444.396,0
443.338,0
442.279,0
441.221,0
440.162,0
439.102,0
438.043,0
436.983,0
435.924,0
434.864,0
433.804,0
432.743,0
431.683,0
430.622,0
429.561,0
428.5,0
427.439,0
426.377,0
425.315,0
424.253,0
423.191,0
422.129,0
421.066,0
420.004,0
418.941,0
417.878,0
416.814,0
415.751,0
414.687,0
413.623,0
412.559,0
411.495,0
410.43,0.0184066849528246
409.365,0.020613216786933
408.301,0.0184204605369011
407.235,0.0190868191085459
406.17,0.0188702946880573
405.105,0.0217473439976338
404.039,0.0201922148917571
402.973,0.018195594810579
401.907,0
400.84,0
399.774,0
398.707,0
397.64,0
396.573,0
395.506,0
394.438,0
393.371,0
392.303,0
391.235,0
390.166,0
389.098,0
388.029,0
386.96,0
385.891,0
384.822,0
383.752,0
382.682,0
381.613,0
380.542,0
379.472,0
378.402,0
377.331,0
376.26,0
375.189,0
374.117,0
373.046,0
371.974,0
370.902,0
369.83,0
368.758,0
367.685,0
366.613,0
365.54,0
364.466,0
363.393,0
362.32,0
361.246,0
360.172,0
359.098,0
358.023,0
356.949,0
355.874,0
354.799,0
353.724,0
352.649,0
351.573,0
350.497,0
349.421,0
348.345,0
347.269,0
346.192,0
345.115,0
344.038,0
342.961,0
341.884,0
340.806,0
339.728,0
338.65,0
337.572,0
336.494,0
335.415,0
334.336,0
333.257,0
332.178,0
331.099,0
330.019,0.0189990924632515
328.939,0.0220096701130449
327.859,0.0248873667277153
326.779,0.020550625008968
325.699,0.0232931462174302
324.618,0.0259168588686809
323.537,0.0285710541840619
322.456,0.0217283997480419
321.375,0.0419424045152614
320.293,0.0452182762302105
319.212,0.0486213192412345
318.13,0.0442440332622097
317.048,0.0471456706850915
315.966,0.049468949407823
314.883,0.0510876796184605
313.8,0.0520849549539598
312.718,0.0524603520215815
311.634,0.0524699884163748
310.551,0.0521630731626763
309.468,0.0518002885176015
308.384,0.0515031301615454
307.3,0.0511772902280805
306.216,0.0508235055019763
305.132,0.0505619289887528
304.047,0.0502537720222171
302.962,0.0498486492064229
301.877,0.0490992520836055
300.792,0.048250123831568
299.707,0.0474060235209623
298.621,0.0555200625475879
297.536,0.0550088802937692
296.45,0.0547466481547528
295.364,0.054650096169902
294.277,0.0548508566483149
293.191,0.0549973681270364
292.104,0.0551792171381488
291.017,0.0555324754965596
289.93,0.0561586335774021
288.842,0.0571398797517704
287.755,0.0584654443101796
286.667,0.0504659610848472
285.579,0.052384328249122
284.491,0.0544761074082527
283.402,0.0568260482761369
282.314,0.0591467983696701
281.225,0.0615378766864467
280.136,0.0638098555215036
279.047,0.0657609295249231
277.957,0.0673222174053536
276.867,0.0685934691520652
275.778,0.0698746585781038
274.688,0.0713209175941158
273.597,0.0729656568460728
272.507,0.0749254899698433
271.416,0.0769700806540067
270.325,0.0899745703104297
269.234,0.092067914999276
268.143,0.0939498468345721
267.051,0.0954988567610266
265.96,0.0968438000825883
264.868,0.0981710318405049
263.776,0.0993168251903182
262.683,0.100264571147585
261.591,0.101223003105383
260.498,0.0904775529376055
259.405,0.0912201314404653
258.312,0.091758551518297
257.218,0.104060880420193
256.125,0.10439489370853
255.031,0.104286947830522
253.937,0.103668684484081
252.843,0.102551214167484
251.748,0.100828486187296
250.654,0.098730125303909
249.559,0.0962622973921955
248.464,0.0935325636805353
247.369,0.0904390369944131
246.273,0.0871809484107136
245.178,0.0839079596586937
244.082,0.080614613434072
242.986,0.0773983639880215
241.889,0.0746031776756591
240.793,0.072286970116409
239.696,0.070538760789457
238.599,0.0693997719714134
237.502,0.0553449354251066
236.405,0.0550324355146995
235.307,0.0550876331835293
234.21,0.0554583707817658
233.112,0.056018204658557
232.014,0.0566553189185085
230.915,0.057681697571236
229.817,0.0589465817661482
228.718,0.0603545754350648
227.619,0.0620649042268001
226.52,0.064158603384824
225.42,0.0664793910720574
224.321,0.0688922689148303
223.221,0.0712870348763243
222.121,0.0738444899923317
221.021,0.0763333999779254
219.92,0.078983798612506
218.82,0.0816488233231085
217.719,0.0843873946838678
216.618,0.0871509019097953
215.516,0.0899850359806234
214.415,0.0927332575025317
213.313,0.0954754911318432
212.211,0.0982874181044397
211.109,0.101384580214304
210.007,0.104502821749828
208.904,0.107816792357271
207.802,0.111066939505342
206.699,0.114139086580994
205.595,0.116760176754712
204.492,0.119224352034481
203.389,0.121621550883177
202.285,0.124200939017612
201.181,0.127096622159254
200.077,0.130490974374163
198.972,0.133974728175663
197.867,0.154746722536567
196.763,0.158143962859368
195.658,0.161413925332982
194.552,0.164478548508461
193.447,0.167424472721309
192.341,0.170490349877867
191.235,0.17391096357196
190.129,0.177620591689831
189.023,0.181743243995286
187.916,0.186102752062672
186.81,0.190662803661805
185.703,0.19541434620579
184.595,0.200358176338514
183.488,0.205647121493402
182.381,0.211245724639518
181.273,0.217369041064138
180.165,0.223813425174835
179.057,0.230587877972184
177.948,0.237751630536365
176.839,0.245286280125933
175.731,0.253161680324879
174.622,0.2612502241357
173.512,0.269271677422689
172.403,0.277010547898841
171.293,0.283927922576045
170.183,0.289735240473054
169.073,0.293989537319234
167.963,0.296733071965976
166.852,0.297963988210732
165.742,0.297856942521407
164.631,0.296986998322176
163.519,0.295714599895386
162.408,0.294357682498876
161.296,0.293442247039423
160.185,0.293267796996043
159.073,0.294197124828151
157.96,0.296374615772199
156.848,0.299766346918279
155.735,0.304391149449448
154.622,0.309917560789835
153.509,0.316322984860102
152.396,0.323628706769499
151.282,0.331576741025667
150.169,0.340053461704286
149.055,0.349307826019371
147.941,0.358842602288303
146.826,0.368661680943076
145.712,0.378601109163082
144.597,0.388883376488758
143.482,0.39950996480342
142.367,0.4103736325597
141.251,0.421518937367093
140.136,0.432908967085973
139.02,0.444386758518528
137.904,0.456191917606556
136.788,0.468222203775787
135.671,0.480540321817078
134.554,0.493196260623472
133.437,0.506099263465243
132.32,0.51920119814536
131.203,0.532329140661987
130.085,0.545484340405804
128.968,0.559026791059211
127.85,0.572841334921938
126.732,0.587161112416779
125.613,0.602291349501274
124.494,0.618342494438606
123.376,0.628018915261823
122.257,0.652371883774182
121.137,0.692394282277595
120.018,0.735804182383665
118.898,0.763626306168638
117.778,0.756381294233547
116.658,0.698513170323122
115.538,0.582525250178973
114.417,0.412038492380134
113.296,0.22715606768303
112.176,0.0496614586196214
111.054,0
109.933,0
108.811,0
107.689,0
106.567,0
105.445,0
104.323,0
103.2,0
102.077,0
100.954,0
