4001.37	0.28866
4000.9	0.288637
4000.42	0.288603
3999.94	0.288568
3999.47	0.288568
3998.99	0.288563
3998.51	0.288533
3998.04	0.288477
3997.56	0.288448
3997.08	0.288412
3996.6	0.288348
3996.13	0.288289
3995.65	0.288269
3995.17	0.288219
3994.7	0.288155
3994.22	0.28813
3993.74	0.288126
3993.26	0.288114
3992.79	0.288104
3992.31	0.288065
3991.83	0.28802
3991.35	0.287971
3990.88	0.287884
3990.4	0.287847
3989.92	0.287792
3989.44	0.28776
3988.96	0.287736
3988.49	0.287673
3988.01	0.287643
3987.53	0.287661
3987.05	0.287622
3986.57	0.287588
3986.09	0.287535
3985.61	0.287505
3985.14	0.287452
3984.66	0.287393
3984.18	0.28736
3983.7	0.287351
3983.22	0.28733
3982.74	0.287257
3982.26	0.287218
3981.78	0.287187
3981.3	0.287137
3980.83	0.287107
3980.35	0.287075
3979.87	0.28708
3979.39	0.287077
3978.91	0.287027
3978.43	0.287007
3977.95	0.286951
3977.47	0.286886
3976.99	0.286867
3976.51	0.286836
3976.03	0.286825
3975.55	0.286793
3975.07	0.286771
3974.59	0.286766
3974.11	0.286745
3973.63	0.286701
3973.15	0.286665
3972.67	0.286586
3972.19	0.286513
3971.71	0.286455
3971.23	0.286378
3970.74	0.286322
3970.26	0.286267
3969.78	0.286245
3969.3	0.28622
3968.82	0.286209
3968.34	0.286227
3967.86	0.286247
3967.38	0.286217
3966.9	0.286143
3966.42	0.286075
3965.93	0.286007
3965.45	0.285953
3964.97	0.285911
3964.49	0.285925
3964.01	0.285922
3963.53	0.285904
3963.04	0.285884
3962.56	0.285864
3962.08	0.285808
3961.6	0.285776
3961.12	0.285739
3960.63	0.285731
3960.15	0.285684
3959.67	0.285614
3959.19	0.285576
3958.71	0.285543
3958.22	0.285493
3957.74	0.285434
3957.26	0.285404
3956.77	0.285393
3956.29	0.285322
3955.81	0.285211
3955.33	0.285132
3954.84	0.285096
3954.36	0.285055
3953.88	0.285005
3953.39	0.285048
3952.91	0.285068
3952.43	0.285072
3951.94	0.285063
3951.46	0.285067
3950.98	0.285048
3950.49	0.285024
3950.01	0.284957
3949.53	0.284946
3949.04	0.284857
3948.56	0.284794
3948.07	0.284741
3947.59	0.284705
3947.11	0.284597
3946.62	0.284572
3946.14	0.284499
3945.65	0.284459
3945.17	0.284424
3944.69	0.284397
3944.2	0.284428
3943.72	0.284427
3943.23	0.28438
3942.75	0.284376
3942.26	0.284321
3941.78	0.284266
3941.29	0.284239
3940.81	0.284229
3940.32	0.284201
3939.84	0.284187
3939.35	0.284136
3938.87	0.284112
3938.38	0.284079
3937.9	0.284023
3937.41	0.283968
3936.93	0.283931
3936.44	0.283863
3935.95	0.283839
3935.47	0.283781
3934.98	0.283749
3934.5	0.283709
3934.01	0.283684
3933.52	0.283659
3933.04	0.283648
3932.55	0.283618
3932.07	0.28358
3931.58	0.283502
3931.09	0.283416
3930.61	0.283367
3930.12	0.28332
3929.63	0.283263
3929.15	0.283199
3928.66	0.283199
3928.17	0.283167
3927.69	0.283123
3927.2	0.283113
3926.71	0.283128
3926.23	0.283108
3925.74	0.283058
3925.25	0.282976
3924.76	0.282957
3924.28	0.282877
3923.79	0.282876
3923.3	0.282913
3922.81	0.282935
3922.33	0.282959
3921.84	0.28293
3921.35	0.282872
3920.86	0.282792
3920.38	0.28271
3919.89	0.282652
3919.4	0.28263
3918.91	0.282592
3918.42	0.28256
3917.94	0.282491
3917.45	0.282453
3916.96	0.282443
3916.47	0.282413
3915.98	0.282368
3915.49	0.282341
3915	0.28229
3914.52	0.282262
3914.03	0.282199
3913.54	0.282164
3913.05	0.28214
3912.56	0.282098
3912.07	0.282065
3911.58	0.282016
3911.09	0.28197
3910.6	0.281959
3910.11	0.281913
3909.62	0.281887
3909.14	0.281797
3908.65	0.281765
3908.16	0.281745
3907.67	0.281695
3907.18	0.28165
3906.69	0.281625
3906.2	0.281595
3905.71	0.281547
3905.22	0.281483
3904.73	0.281491
3904.24	0.281461
3903.75	0.281392
3903.26	0.281361
3902.77	0.281341
3902.27	0.281305
3901.78	0.281274
3901.29	0.281225
3900.8	0.281201
3900.31	0.281149
3899.82	0.281071
3899.33	0.281039
3898.84	0.281002
3898.35	0.280982
3897.86	0.280959
3897.37	0.280891
3896.87	0.280863
3896.38	0.28084
3895.89	0.28076
3895.4	0.280715
3894.91	0.280693
3894.42	0.280661
3893.93	0.280613
3893.43	0.280605
3892.94	0.28059
3892.45	0.280558
3891.96	0.280536
3891.47	0.28054
3890.97	0.280521
3890.48	0.280467
3889.99	0.280425
3889.5	0.280392
3889.01	0.28034
3888.51	0.280263
3888.02	0.280243
3887.53	0.280224
3887.03	0.280154
3886.54	0.280128
3886.05	0.280104
3885.56	0.280079
3885.06	0.280052
3884.57	0.279999
3884.08	0.279968
3883.58	0.279924
3883.09	0.279835
3882.6	0.279808
3882.1	0.279757
3881.61	0.279737
3881.12	0.279703
3880.62	0.279694
3880.13	0.279699
3879.64	0.279688
3879.14	0.279664
3878.65	0.279619
3878.15	0.279574
3877.66	0.27952
3877.17	0.279466
3876.67	0.279441
3876.18	0.279414
3875.68	0.279383
3875.19	0.279359
3874.7	0.279223
3874.2	0.279142
3873.71	0.27908
3873.21	0.279064
3872.72	0.279064
3872.22	0.279074
3871.73	0.279091
3871.23	0.279069
3870.74	0.278995
3870.24	0.278924
3869.75	0.278889
3869.25	0.278855
3868.76	0.278814
3868.26	0.278783
3867.77	0.278739
3867.27	0.278695
3866.77	0.278695
3866.28	0.278656
3865.78	0.278661
3865.29	0.278639
3864.79	0.278612
3864.3	0.278551
3863.8	0.278481
3863.3	0.27843
3862.81	0.278405
3862.31	0.278336
3861.81	0.278305
3861.32	0.278274
3860.82	0.278251
3860.33	0.2782
3859.83	0.278204
3859.33	0.278172
3858.84	0.278128
3858.34	0.278066
3857.84	0.278017
3857.35	0.277974
3856.85	0.277939
3856.35	0.277886
3855.85	0.277877
3855.36	0.277852
3854.86	0.277831
3854.36	0.277787
3853.86	0.277754
3853.37	0.277732
3852.87	0.277655
3852.37	0.277567
3851.87	0.27752
3851.38	0.277523
3850.88	0.277512
3850.38	0.277473
3849.88	0.277448
3849.38	0.277395
3848.89	0.277315
3848.39	0.277259
3847.89	0.277238
3847.39	0.277239
3846.89	0.277202
3846.39	0.277185
3845.9	0.277132
3845.4	0.2771
3844.9	0.277076
3844.4	0.277032
3843.9	0.276966
3843.4	0.276908
3842.9	0.276831
3842.4	0.276791
3841.91	0.276754
3841.41	0.276743
3840.91	0.276721
3840.41	0.276697
3839.91	0.276647
3839.41	0.276631
3838.91	0.276598
3838.41	0.276522
3837.91	0.276436
3837.41	0.276414
3836.91	0.276404
3836.41	0.276381
3835.91	0.27635
3835.41	0.276361
3834.91	0.276327
3834.41	0.276255
3833.91	0.276233
3833.41	0.276245
3832.91	0.276229
3832.41	0.276189
3831.91	0.276124
3831.41	0.276067
3830.91	0.275968
3830.4	0.275872
3829.9	0.275875
3829.4	0.275823
3828.9	0.275804
3828.4	0.275799
3827.9	0.275743
3827.4	0.275702
3826.9	0.275659
3826.4	0.275625
3825.89	0.275638
3825.39	0.275606
3824.89	0.275577
3824.39	0.275525
3823.89	0.27545
3823.39	0.275425
3822.88	0.275391
3822.38	0.275362
3821.88	0.275337
3821.38	0.275277
3820.88	0.275212
3820.37	0.275176
3819.87	0.275133
3819.37	0.275111
3818.87	0.275077
3818.36	0.27505
3817.86	0.275036
3817.36	0.274985
3816.86	0.274952
3816.35	0.274921
3815.85	0.274891
3815.35	0.274841
3814.84	0.274798
3814.34	0.274732
3813.84	0.27474
3813.33	0.274685
3812.83	0.274631
3812.33	0.274577
3811.82	0.274584
3811.32	0.27454
3810.82	0.274493
3810.31	0.274449
3809.81	0.274451
3809.31	0.274401
3808.8	0.274357
3808.3	0.2743
3807.79	0.274272
3807.29	0.274228
3806.79	0.27418
3806.28	0.274178
3805.78	0.274178
3805.27	0.274196
3804.77	0.274171
3804.26	0.274132
3803.76	0.274053
3803.25	0.273953
3802.75	0.273874
3802.24	0.273856
3801.74	0.273806
3801.23	0.273805
3800.73	0.273788
3800.22	0.273771
3799.72	0.273702
3799.21	0.273613
3798.71	0.273572
3798.2	0.273529
3797.7	0.273465
3797.19	0.273427
3796.69	0.273379
3796.18	0.273338
3795.67	0.273291
3795.17	0.273256
3794.66	0.273251
3794.16	0.273244
3793.65	0.273234
3793.14	0.273185
3792.64	0.273164
3792.13	0.273156
3791.63	0.273116
3791.12	0.273068
3790.61	0.273019
3790.11	0.272979
3789.6	0.27293
3789.09	0.272845
3788.59	0.272814
3788.08	0.272806
3787.57	0.272777
3787.06	0.272741
3786.56	0.272722
3786.05	0.272711
3785.54	0.272689
3785.04	0.272605
3784.53	0.272544
3784.02	0.272497
3783.51	0.272451
3783.01	0.272424
3782.5	0.272386
3781.99	0.272328
3781.48	0.272283
3780.97	0.272216
3780.47	0.272152
3779.96	0.272139
3779.45	0.272113
3778.94	0.272137
3778.43	0.272115
3777.93	0.272057
3777.42	0.272041
3776.91	0.272006
3776.4	0.271955
3775.89	0.271923
3775.38	0.271872
3774.87	0.271871
3774.36	0.271888
3773.86	0.271837
3773.35	0.271819
3772.84	0.271762
3772.33	0.271683
3771.82	0.27161
3771.31	0.271547
3770.8	0.271488
3770.29	0.27149
3769.78	0.271439
3769.27	0.271409
3768.76	0.271348
3768.25	0.271297
3767.74	0.271286
3767.23	0.271237
3766.72	0.271169
3766.21	0.271134
3765.7	0.271075
3765.19	0.271046
3764.68	0.271027
3764.17	0.270999
3763.66	0.271
3763.15	0.270967
3762.64	0.270925
3762.13	0.270895
3761.62	0.270847
3761.11	0.270818
3760.6	0.270781
3760.09	0.270713
3759.57	0.270708
3759.06	0.270698
3758.55	0.270672
3758.04	0.270643
3757.53	0.270604
3757.02	0.270565
3756.51	0.270514
3756	0.270448
3755.48	0.270419
3754.97	0.270403
3754.46	0.270357
3753.95	0.270327
3753.44	0.27029
3752.92	0.270244
3752.41	0.270202
3751.9	0.270165
3751.39	0.270114
3750.88	0.270086
3750.36	0.270056
3749.85	0.270047
3749.34	0.270004
3748.83	0.269976
3748.31	0.269947
3747.8	0.269891
3747.29	0.269845
3746.78	0.269808
3746.26	0.269753
3745.75	0.269671
3745.24	0.269616
3744.72	0.269556
3744.21	0.269496
3743.7	0.269457
3743.18	0.269442
3742.67	0.269482
3742.16	0.269455
3741.64	0.269403
3741.13	0.269375
3740.61	0.269342
3740.1	0.269275
3739.59	0.269211
3739.07	0.269155
3738.56	0.26915
3738.04	0.26909
3737.53	0.269032
3737.02	0.269011
3736.5	0.269019
3735.99	0.268931
3735.47	0.26888
3734.96	0.268874
3734.44	0.268836
3733.93	0.268806
3733.41	0.268761
3732.9	0.268719
3732.38	0.268652
3731.87	0.268569
3731.35	0.26852
3730.84	0.26847
3730.32	0.26843
3729.81	0.268435
3729.29	0.268431
3728.78	0.268428
3728.26	0.268429
3727.75	0.268407
3727.23	0.268384
3726.71	0.268301
3726.2	0.268294
3725.68	0.268237
3725.17	0.268221
3724.65	0.268188
3724.13	0.26817
3723.62	0.268111
3723.1	0.268042
3722.59	0.267974
3722.07	0.267932
3721.55	0.267875
3721.04	0.267883
3720.52	0.267834
3720	0.267818
3719.49	0.267789
3718.97	0.267728
3718.45	0.267671
3717.93	0.267593
3717.42	0.267559
3716.9	0.267523
3716.38	0.267482
3715.87	0.267467
3715.35	0.267436
3714.83	0.267379
3714.31	0.267326
3713.8	0.267295
3713.28	0.267231
3712.76	0.267182
3712.24	0.267172
3711.72	0.267143
3711.21	0.267112
3710.69	0.267047
3710.17	0.267017
3709.65	0.266992
3709.13	0.266918
3708.61	0.266891
3708.1	0.26688
3707.58	0.266856
3707.06	0.266785
3706.54	0.266705
3706.02	0.266674
3705.5	0.266616
3704.98	0.266586
3704.46	0.266579
3703.95	0.26655
3703.43	0.266542
3702.91	0.266482
3702.39	0.266443
3701.87	0.266421
3701.35	0.266368
3700.83	0.266351
3700.31	0.26631
3699.79	0.26624
3699.27	0.266184
3698.75	0.26615
3698.23	0.266103
3697.71	0.266115
3697.19	0.266111
3696.67	0.26612
3696.15	0.266127
3695.63	0.266078
3695.11	0.265998
3694.59	0.265922
3694.07	0.265841
3693.55	0.265813
3693.03	0.26575
3692.51	0.265679
3691.99	0.265643
3691.46	0.265582
3690.94	0.265544
3690.42	0.265528
3689.9	0.265542
3689.38	0.265549
3688.86	0.265517
3688.34	0.265462
3687.82	0.265424
3687.29	0.265368
3686.77	0.265342
3686.25	0.265313
3685.73	0.265273
3685.21	0.265192
3684.69	0.265114
3684.16	0.265075
3683.64	0.265074
3683.12	0.265089
3682.6	0.265093
3682.08	0.265069
3681.55	0.265044
3681.03	0.264988
3680.51	0.26491
3679.99	0.264849
3679.46	0.264815
3678.94	0.26481
3678.42	0.264741
3677.89	0.264696
3677.37	0.264685
3676.85	0.264649
3676.33	0.264589
3675.8	0.264534
3675.28	0.26449
3674.76	0.264458
3674.23	0.264384
3673.71	0.264377
3673.19	0.264332
3672.66	0.264303
3672.14	0.264263
3671.61	0.26422
3671.09	0.264143
3670.57	0.264057
3670.04	0.264004
3669.52	0.264003
3668.99	0.263956
3668.47	0.263953
3667.95	0.263928
3667.42	0.263893
3666.9	0.263821
3666.37	0.263735
3665.85	0.26373
3665.32	0.263703
3664.8	0.263654
3664.27	0.263634
3663.75	0.263626
3663.22	0.263598
3662.7	0.263567
3662.17	0.263523
3661.65	0.263504
3661.12	0.263434
3660.6	0.263381
3660.07	0.26337
3659.55	0.263353
3659.02	0.263305
3658.49	0.263262
3657.97	0.263228
3657.44	0.263197
3656.92	0.263125
3656.39	0.263054
3655.86	0.262997
3655.34	0.262943
3654.81	0.262912
3654.29	0.262877
3653.76	0.262879
3653.23	0.262885
3652.71	0.262855
3652.18	0.262825
3651.65	0.262782
3651.13	0.26276
3650.6	0.262745
3650.07	0.262656
3649.55	0.262576
3649.02	0.26251
3648.49	0.262457
3647.96	0.262439
3647.44	0.262414
3646.91	0.262402
3646.38	0.262383
3645.85	0.262321
3645.33	0.262284
3644.8	0.262275
3644.27	0.262257
3643.74	0.262222
3643.22	0.262153
3642.69	0.262081
3642.16	0.262014
3641.63	0.261926
3641.1	0.26189
3640.57	0.261889
3640.05	0.261892
3639.52	0.261898
3638.99	0.261856
3638.46	0.261817
3637.93	0.26175
3637.4	0.261669
3636.87	0.261576
3636.35	0.261532
3635.82	0.26152
3635.29	0.261525
3634.76	0.261513
3634.23	0.261491
3633.7	0.261472
3633.17	0.261452
3632.64	0.261395
3632.11	0.261377
3631.58	0.261299
3631.05	0.261252
3630.52	0.261201
3629.99	0.261127
3629.46	0.261087
3628.93	0.26105
3628.4	0.260971
3627.87	0.260925
3627.34	0.260861
3626.81	0.260848
3626.28	0.260832
3625.75	0.260793
3625.22	0.260805
3624.69	0.260789
3624.16	0.260717
3623.63	0.260682
3623.1	0.260678
3622.57	0.26063
3622.03	0.260576
3621.5	0.260467
3620.97	0.260448
3620.44	0.260393
3619.91	0.260353
3619.38	0.260316
3618.85	0.260339
3618.32	0.260324
3617.78	0.260289
3617.25	0.260229
3616.72	0.26018
3616.19	0.260108
3615.66	0.260046
3615.12	0.259977
3614.59	0.259957
3614.06	0.259974
3613.53	0.259957
3613	0.259939
3612.46	0.259901
3611.93	0.259872
3611.4	0.259859
3610.86	0.259828
3610.33	0.259766
3609.8	0.259729
3609.27	0.259638
3608.73	0.259591
3608.2	0.259529
3607.67	0.259503
3607.13	0.259487
3606.6	0.259453
3606.07	0.259376
3605.53	0.259331
3605	0.25927
3604.47	0.259235
3603.93	0.259257
3603.4	0.259221
3602.87	0.259175
3602.33	0.259173
3601.8	0.259114
3601.26	0.259056
3600.73	0.258999
3600.2	0.25897
3599.66	0.259
3599.13	0.258888
3598.59	0.25883
3598.06	0.258794
3597.52	0.258743
3596.99	0.258676
3596.45	0.258659
3595.92	0.258669
3595.38	0.258652
3594.85	0.258574
3594.31	0.258499
3593.78	0.258413
3593.24	0.258375
3592.71	0.258331
3592.17	0.258319
3591.64	0.25832
3591.1	0.258325
3590.57	0.258263
3590.03	0.258184
3589.49	0.258113
3588.96	0.258072
3588.42	0.258016
3587.89	0.258008
3587.35	0.257974
3586.81	0.257966
3586.28	0.257903
3585.74	0.257858
3585.2	0.25783
3584.67	0.257819
3584.13	0.257749
3583.6	0.257753
3583.06	0.257686
3582.52	0.257643
3581.98	0.25757
3581.45	0.257544
3580.91	0.257521
3580.37	0.257506
3579.84	0.257451
3579.3	0.257429
3578.76	0.257386
3578.22	0.257365
3577.69	0.257305
3577.15	0.257298
3576.61	0.25724
3576.07	0.257235
3575.54	0.257205
3575	0.257192
3574.46	0.257145
3573.92	0.257092
3573.38	0.257043
3572.85	0.256977
3572.31	0.256935
3571.77	0.256933
3571.23	0.2569
3570.69	0.256906
3570.15	0.256865
3569.61	0.256833
3569.08	0.256822
3568.54	0.256754
3568	0.256724
3567.46	0.256656
3566.92	0.256589
3566.38	0.256542
3565.84	0.256448
3565.3	0.256371
3564.76	0.256324
3564.22	0.256294
3563.68	0.25626
3563.14	0.25625
3562.6	0.256219
3562.06	0.256174
3561.52	0.256096
3560.98	0.256079
3560.44	0.256064
3559.9	0.25608
3559.36	0.256068
3558.82	0.256029
3558.28	0.255949
3557.74	0.255858
3557.2	0.255786
3556.66	0.25573
3556.12	0.255681
3555.58	0.255686
3555.04	0.255664
3554.5	0.255621
3553.96	0.255597
3553.42	0.255537
3552.87	0.255513
3552.33	0.255458
3551.79	0.255445
3551.25	0.255411
3550.71	0.255399
3550.17	0.255365
3549.63	0.255326
3549.08	0.255266
3548.54	0.255208
3548	0.255129
3547.46	0.255058
3546.92	0.254973
3546.37	0.254933
3545.83	0.254931
3545.29	0.254918
3544.75	0.254916
3544.21	0.254892
3543.66	0.254857
3543.12	0.254828
3542.58	0.254788
3542.03	0.254724
3541.49	0.25471
3540.95	0.254667
3540.41	0.254651
3539.86	0.254615
3539.32	0.254579
3538.78	0.254573
3538.23	0.254521
3537.69	0.254431
3537.15	0.254321
3536.6	0.254256
3536.06	0.25423
3535.52	0.254225
3534.97	0.254195
3534.43	0.254203
3533.88	0.254154
3533.34	0.254128
3532.8	0.254059
3532.25	0.254031
3531.71	0.254006
3531.16	0.253963
3530.62	0.253883
3530.07	0.253826
3529.53	0.253783
3528.98	0.253783
3528.44	0.25378
3527.89	0.253778
3527.35	0.253751
3526.8	0.253678
3526.26	0.25361
3525.71	0.253538
3525.17	0.253479
3524.62	0.253444
3524.08	0.253411
3523.53	0.25338
3522.99	0.253307
3522.44	0.253246
3521.9	0.253212
3521.35	0.253186
3520.8	0.253141
3520.26	0.253122
3519.71	0.253104
3519.17	0.253131
3518.62	0.25309
3518.07	0.25307
3517.53	0.253029
3516.98	0.252963
3516.43	0.252886
3515.89	0.252799
3515.34	0.252742
3514.79	0.252708
3514.25	0.252675
3513.7	0.252654
3513.15	0.252617
3512.61	0.252568
3512.06	0.252549
3511.51	0.252531
3510.96	0.25251
3510.42	0.252453
3509.87	0.252452
3509.32	0.252392
3508.77	0.252293
3508.23	0.252228
3507.68	0.252223
3507.13	0.252252
3506.58	0.252246
3506.04	0.252226
3505.49	0.25218
3504.94	0.252071
3504.39	0.251976
3503.84	0.251902
3503.29	0.251848
3502.75	0.251814
3502.2	0.251743
3501.65	0.25167
3501.1	0.251607
3500.55	0.25158
3500	0.251546
3499.45	0.251497
3498.9	0.25148
3498.35	0.251514
3497.8	0.251541
3497.26	0.25153
3496.71	0.251551
3496.16	0.251501
3495.61	0.251415
3495.06	0.251317
3494.51	0.251235
3493.96	0.251192
3493.41	0.251177
3492.86	0.251142
3492.31	0.251151
3491.76	0.251125
3491.21	0.251128
3490.66	0.251094
3490.11	0.251022
3489.56	0.250953
3489	0.250883
3488.45	0.250785
3487.9	0.25075
3487.35	0.250707
3486.8	0.250704
3486.25	0.250709
3485.7	0.250686
3485.15	0.250678
3484.6	0.250623
3484.05	0.250523
3483.49	0.250485
3482.94	0.25039
3482.39	0.250321
3481.84	0.25028
3481.29	0.250229
3480.74	0.250197
3480.18	0.250169
3479.63	0.250135
3479.08	0.250115
3478.53	0.250075
3477.98	0.250076
3477.42	0.250032
3476.87	0.249981
3476.32	0.249912
3475.77	0.249835
3475.21	0.249776
3474.66	0.249702
3474.11	0.249667
3473.56	0.249662
3473	0.249646
3472.45	0.249662
3471.9	0.24965
3471.34	0.249615
3470.79	0.249582
3470.24	0.249522
3469.68	0.249463
3469.13	0.249395
3468.58	0.249371
3468.02	0.249341
3467.47	0.249313
3466.91	0.249272
3466.36	0.24921
3465.81	0.249177
3465.25	0.24913
3464.7	0.249041
3464.14	0.249001
3463.59	0.24897
3463.04	0.248924
3462.48	0.248905
3461.93	0.248875
3461.37	0.24887
3460.82	0.248815
3460.26	0.248764
3459.71	0.248714
3459.15	0.248696
3458.6	0.248642
3458.04	0.248597
3457.49	0.248556
3456.93	0.248529
3456.38	0.248492
3455.82	0.248458
3455.27	0.248394
3454.71	0.248341
3454.15	0.248311
3453.6	0.248291
3453.04	0.248271
3452.49	0.248231
3451.93	0.248205
3451.37	0.248111
3450.82	0.248066
3450.26	0.24801
3449.7	0.248032
3449.15	0.248005
3448.59	0.248005
3448.04	0.247973
3447.48	0.247915
3446.92	0.247798
3446.36	0.247756
3445.81	0.247695
3445.25	0.247661
3444.69	0.247606
3444.14	0.247656
3443.58	0.247654
3443.02	0.247584
3442.46	0.247528
3441.91	0.247468
3441.35	0.247389
3440.79	0.247338
3440.23	0.247265
3439.68	0.24725
3439.12	0.24722
3438.56	0.247153
3438	0.24713
3437.44	0.247104
3436.88	0.247099
3436.33	0.247102
3435.77	0.247034
3435.21	0.246962
3434.65	0.246884
3434.09	0.246786
3433.53	0.246706
3432.97	0.246672
3432.42	0.246702
3431.86	0.246718
3431.3	0.24667
3430.74	0.246603
3430.18	0.246573
3429.62	0.246546
3429.06	0.246493
3428.5	0.246471
3427.94	0.246456
3427.38	0.246435
3426.82	0.246336
3426.26	0.246297
3425.7	0.246272
3425.14	0.24623
3424.58	0.246165
3424.02	0.246088
3423.46	0.246069
3422.9	0.246094
3422.34	0.246064
3421.78	0.246085
3421.22	0.246068
3420.66	0.245997
3420.1	0.245905
3419.54	0.245803
3418.98	0.24577
3418.41	0.245751
3417.85	0.2457
3417.29	0.245712
3416.73	0.24569
3416.17	0.245633
3415.61	0.245582
3415.05	0.245524
3414.49	0.24547
3413.92	0.245418
3413.36	0.245345
3412.8	0.245303
3412.24	0.245267
3411.68	0.245243
3411.11	0.245247
3410.55	0.245235
3409.99	0.245247
3409.43	0.245225
3408.86	0.245172
3408.3	0.245091
3407.74	0.244996
3407.18	0.24494
3406.61	0.244869
3406.05	0.244825
3405.49	0.244804
3404.92	0.244768
3404.36	0.24475
3403.8	0.244686
3403.24	0.244621
3402.67	0.244618
3402.11	0.244568
3401.54	0.244536
3400.98	0.244511
3400.42	0.24448
3399.85	0.244469
3399.29	0.244426
3398.73	0.244388
3398.16	0.244353
3397.6	0.244305
3397.03	0.244271
3396.47	0.244215
3395.9	0.244196
3395.34	0.244168
3394.78	0.244167
3394.21	0.244111
3393.65	0.244028
3393.08	0.24394
3392.52	0.243904
3391.95	0.243806
3391.39	0.243795
3390.82	0.243743
3390.26	0.243789
3389.69	0.243762
3389.13	0.243701
3388.56	0.24368
3387.99	0.243645
3387.43	0.243522
3386.86	0.243484
3386.3	0.243385
3385.73	0.243351
3385.17	0.243305
3384.6	0.243289
3384.03	0.2433
3383.47	0.243258
3382.9	0.243202
3382.33	0.243218
3381.77	0.243153
3381.2	0.243073
3380.63	0.243011
3380.07	0.242963
3379.5	0.242908
3378.93	0.242839
3378.37	0.242839
3377.8	0.24285
3377.23	0.242819
3376.67	0.24277
3376.1	0.242742
3375.53	0.242715
3374.96	0.24271
3374.4	0.242666
3373.83	0.242638
3373.26	0.242573
3372.69	0.242474
3372.12	0.242396
3371.56	0.242404
3370.99	0.242391
3370.42	0.242444
3369.85	0.242445
3369.28	0.242377
3368.72	0.242271
3368.15	0.242178
3367.58	0.242109
3367.01	0.242039
3366.44	0.241981
3365.87	0.241988
3365.3	0.242003
3364.73	0.241947
3364.17	0.241919
3363.6	0.241915
3363.03	0.241874
3362.46	0.241789
3361.89	0.241734
3361.32	0.241682
3360.75	0.24162
3360.18	0.241539
3359.61	0.241511
3359.04	0.241543
3358.47	0.241531
3357.9	0.241514
3357.33	0.241481
3356.76	0.241423
3356.19	0.241354
3355.62	0.241324
3355.05	0.241299
3354.48	0.241316
3353.91	0.241231
3353.34	0.241145
3352.77	0.241026
3352.19	0.240922
3351.62	0.24089
3351.05	0.240839
3350.48	0.240831
3349.91	0.240863
3349.34	0.240862
3348.77	0.240861
3348.2	0.240819
3347.62	0.240769
3347.05	0.240749
3346.48	0.240695
3345.91	0.240676
3345.34	0.240661
3344.76	0.240574
3344.19	0.240522
3343.62	0.240475
3343.05	0.240361
3342.48	0.240318
3341.9	0.240312
3341.33	0.240256
3340.76	0.240208
3340.19	0.240163
3339.61	0.240139
3339.04	0.240127
3338.47	0.240059
3337.89	0.240046
3337.32	0.240027
3336.75	0.239922
3336.17	0.239874
3335.6	0.239861
3335.03	0.239832
3334.45	0.239826
3333.88	0.239804
3333.31	0.239791
3332.73	0.239739
3332.16	0.239626
3331.59	0.239587
3331.01	0.239569
3330.44	0.239547
3329.86	0.239476
3329.29	0.239468
3328.71	0.239439
3328.14	0.239395
3327.56	0.239356
3326.99	0.239298
3326.42	0.239289
3325.84	0.23923
3325.27	0.23914
3324.69	0.239144
3324.12	0.239078
3323.54	0.239068
3322.97	0.239096
3322.39	0.239027
3321.81	0.239054
3321.24	0.239025
3320.66	0.23894
3320.09	0.238859
3319.51	0.238753
3318.94	0.238731
3318.36	0.238695
3317.78	0.238648
3317.21	0.238639
3316.63	0.238648
3316.06	0.238563
3315.48	0.238533
3314.9	0.238459
3314.33	0.23842
3313.75	0.238367
3313.17	0.238351
3312.6	0.238295
3312.02	0.238273
3311.44	0.238199
3310.86	0.238116
3310.29	0.238001
3309.71	0.23793
3309.13	0.237984
3308.56	0.237985
3307.98	0.237995
3307.4	0.237974
3306.82	0.237933
3306.25	0.237882
3305.67	0.237841
3305.09	0.237811
3304.51	0.237797
3303.93	0.23771
3303.36	0.237654
3302.78	0.237552
3302.2	0.237522
3301.62	0.237528
3301.04	0.237492
3300.46	0.237485
3299.88	0.237391
3299.31	0.237314
3298.73	0.237218
3298.15	0.237107
3297.57	0.237099
3296.99	0.237078
3296.41	0.237068
3295.83	0.237095
3295.25	0.237082
3294.67	0.237058
3294.09	0.237023
3293.51	0.23695
3292.93	0.23694
3292.35	0.236933
3291.77	0.23694
3291.19	0.236899
3290.61	0.236824
3290.03	0.236772
3289.45	0.236712
3288.87	0.236591
3288.29	0.236554
3287.71	0.236544
3287.13	0.236498
3286.55	0.236439
3285.97	0.236408
3285.39	0.236412
3284.81	0.236419
3284.23	0.23634
3283.64	0.236376
3283.06	0.236296
3282.48	0.236201
3281.9	0.236129
3281.32	0.236069
3280.74	0.236018
3280.16	0.235988
3279.57	0.235889
3278.99	0.235939
3278.41	0.235871
3277.83	0.23589
3277.25	0.235849
3276.66	0.235799
3276.08	0.235783
3275.5	0.235685
3274.92	0.235577
3274.33	0.235539
3273.75	0.235507
3273.17	0.235497
3272.59	0.235457
3272	0.235465
3271.42	0.23547
3270.84	0.235428
3270.25	0.235435
3269.67	0.235392
3269.09	0.235365
3268.5	0.235262
3267.92	0.23519
3267.34	0.235124
3266.75	0.235031
3266.17	0.23495
3265.59	0.234914
3265	0.234886
3264.42	0.234883
3263.83	0.234883
3263.25	0.234906
3262.67	0.234859
3262.08	0.234848
3261.5	0.234832
3260.91	0.234729
3260.33	0.2347
3259.74	0.234673
3259.16	0.234618
3258.57	0.234576
3257.99	0.234465
3257.4	0.234454
3256.82	0.234428
3256.23	0.234308
3255.65	0.23429
3255.06	0.234256
3254.48	0.234192
3253.89	0.234192
3253.3	0.234128
3252.72	0.234102
3252.13	0.234065
3251.55	0.234026
3250.96	0.234007
3250.37	0.233963
3249.79	0.233897
3249.2	0.233837
3248.62	0.233665
3248.03	0.233589
3247.44	0.233555
3246.86	0.233527
3246.27	0.233525
3245.68	0.233545
3245.09	0.233558
3244.51	0.23351
3243.92	0.233383
3243.33	0.233344
3242.75	0.233299
3242.16	0.233253
3241.57	0.233248
3240.98	0.233283
3240.4	0.233298
3239.81	0.233252
3239.22	0.233205
3238.63	0.233097
3238.04	0.233009
3237.46	0.232937
3236.87	0.232903
3236.28	0.232891
3235.69	0.232808
3235.1	0.232764
3234.51	0.232758
3233.93	0.232666
3233.34	0.232648
3232.75	0.232641
3232.16	0.232609
3231.57	0.232569
3230.98	0.232469
3230.39	0.232433
3229.8	0.232389
3229.21	0.232324
3228.62	0.232296
3228.04	0.232298
3227.45	0.232255
3226.86	0.232168
3226.27	0.232118
3225.68	0.232139
3225.09	0.232116
3224.5	0.232033
3223.91	0.232031
3223.32	0.232042
3222.73	0.232003
3222.14	0.231888
3221.54	0.231848
3220.95	0.231867
3220.36	0.231808
3219.77	0.231727
3219.18	0.231713
3218.59	0.231606
3218	0.231569
3217.41	0.231504
3216.82	0.231461
3216.23	0.231516
3215.63	0.231488
3215.04	0.23146
3214.45	0.231377
3213.86	0.231293
3213.27	0.231295
3212.68	0.231185
3212.08	0.23109
3211.49	0.231081
3210.9	0.230952
3210.31	0.23087
3209.72	0.230855
3209.12	0.230875
3208.53	0.230947
3207.94	0.230918
3207.35	0.230891
3206.75	0.230971
3206.16	0.230894
3205.57	0.230859
3204.97	0.230813
3204.38	0.230711
3203.79	0.230705
3203.2	0.230612
3202.6	0.230514
3202.01	0.23052
3201.41	0.230415
3200.82	0.230375
3200.23	0.230264
3199.63	0.230191
3199.04	0.230214
3198.45	0.230209
3197.85	0.230173
3197.26	0.230174
3196.66	0.230177
3196.07	0.230132
3195.47	0.230057
3194.88	0.230026
3194.29	0.230003
3193.69	0.229948
3193.1	0.229853
3192.5	0.229839
3191.91	0.22984
3191.31	0.22975
3190.72	0.229729
3190.12	0.229769
3189.53	0.229724
3188.93	0.229646
3188.33	0.229483
3187.74	0.229432
3187.14	0.229401
3186.55	0.229394
3185.95	0.229441
3185.36	0.229495
3184.76	0.229487
3184.16	0.229426
3183.57	0.22931
3182.97	0.229243
3182.37	0.229215
3181.78	0.2292
3181.18	0.229164
3180.58	0.229075
3179.99	0.229016
3179.39	0.228946
3178.79	0.228893
3178.2	0.228825
3177.6	0.228783
3177	0.228779
3176.41	0.228789
3175.81	0.228771
3175.21	0.228766
3174.61	0.22882
3174.02	0.228807
3173.42	0.228825
3172.82	0.228757
3172.22	0.228717
3171.62	0.228614
3171.03	0.22847
3170.43	0.228364
3169.83	0.228307
3169.23	0.228266
3168.63	0.228257
3168.03	0.228303
3167.43	0.228361
3166.84	0.228346
3166.24	0.228365
3165.64	0.228338
3165.04	0.228323
3164.44	0.228225
3163.84	0.228119
3163.24	0.228095
3162.64	0.228108
3162.04	0.228081
3161.44	0.228171
3160.84	0.228168
3160.24	0.228243
3159.64	0.228171
3159.04	0.228089
3158.44	0.22804
3157.84	0.228041
3157.24	0.228015
3156.64	0.2281
3156.04	0.228099
3155.44	0.228151
3154.84	0.228107
3154.24	0.228073
3153.64	0.228056
3153.04	0.227966
3152.44	0.227919
3151.84	0.227889
3151.24	0.227845
3150.64	0.227847
3150.03	0.227844
3149.43	0.227867
3148.83	0.227803
3148.23	0.227744
3147.63	0.227721
3147.03	0.22762
3146.42	0.227475
3145.82	0.227476
3145.22	0.227513
3144.62	0.227482
3144.02	0.227389
3143.41	0.227399
3142.81	0.22746
3142.21	0.227384
3141.61	0.227276
3141	0.227283
3140.4	0.227209
3139.8	0.227088
3139.19	0.226987
3138.59	0.226955
3137.99	0.226975
3137.39	0.226963
3136.78	0.226939
3136.18	0.226906
3135.58	0.226862
3134.97	0.226833
3134.37	0.226718
3133.76	0.226649
3133.16	0.226492
3132.56	0.226406
3131.95	0.226185
3131.35	0.226074
3130.74	0.226076
3130.14	0.226034
3129.54	0.225983
3128.93	0.226027
3128.33	0.22595
3127.72	0.22592
3127.12	0.225814
3126.51	0.225803
3125.91	0.225757
3125.3	0.225674
3124.7	0.22562
3124.09	0.225547
3123.49	0.225526
3122.88	0.225511
3122.27	0.225581
3121.67	0.225531
3121.06	0.225442
3120.46	0.225427
3119.85	0.225354
3119.25	0.225286
3118.64	0.225235
3118.03	0.225206
3117.43	0.225196
3116.82	0.225102
3116.21	0.225045
3115.61	0.225037
3115	0.225021
3114.39	0.224965
3113.79	0.224869
3113.18	0.224797
3112.57	0.224753
3111.97	0.22474
3111.36	0.224721
3110.75	0.224742
3110.15	0.224825
3109.54	0.224873
3108.93	0.224909
3108.32	0.224804
3107.71	0.22484
3107.11	0.224847
3106.5	0.224807
3105.89	0.224765
3105.28	0.224772
3104.67	0.224762
3104.07	0.224763
3103.46	0.22475
3102.85	0.224853
3102.24	0.224819
3101.63	0.224831
3101.02	0.224796
3100.41	0.22479
3099.81	0.22473
3099.2	0.224712
3098.59	0.224733
3097.98	0.224692
3097.37	0.224703
3096.76	0.22477
3096.15	0.224779
3095.54	0.224805
3094.93	0.224809
3094.32	0.224737
3093.71	0.224627
3093.1	0.22458
3092.49	0.22458
3091.88	0.2246
3091.27	0.224609
3090.66	0.224588
3090.05	0.224582
3089.44	0.224519
3088.83	0.224367
3088.22	0.224393
3087.61	0.224398
3087	0.22451
3086.39	0.224495
3085.77	0.224498
3085.16	0.224391
3084.55	0.224348
3083.94	0.224235
3083.33	0.224245
3082.72	0.224324
3082.11	0.224312
3081.49	0.224329
3080.88	0.224383
3080.27	0.224436
3079.66	0.224502
3079.05	0.224448
3078.43	0.224492
3077.82	0.22451
3077.21	0.224576
3076.6	0.224686
3075.98	0.224779
3075.37	0.224958
3074.76	0.224917
3074.15	0.224837
3073.53	0.224819
3072.92	0.224761
3072.31	0.224862
3071.69	0.224889
3071.08	0.225087
3070.47	0.225347
3069.85	0.225527
3069.24	0.225742
3068.63	0.225877
3068.01	0.226038
3067.4	0.226251
3066.79	0.226563
3066.17	0.227038
3065.56	0.227395
3064.94	0.227754
3064.33	0.228247
3063.71	0.228642
3063.1	0.229078
3062.48	0.229649
3061.87	0.230273
3061.26	0.231009
3060.64	0.231634
3060.03	0.232385
3059.41	0.233242
3058.79	0.233864
3058.18	0.234586
3057.56	0.235376
3056.95	0.23601
3056.33	0.236701
3055.72	0.237215
3055.1	0.237564
3054.49	0.237557
3053.87	0.237334
3053.25	0.237283
3052.64	0.237147
3052.02	0.236907
3051.41	0.236596
3050.79	0.236047
3050.17	0.235351
3049.56	0.234328
3048.94	0.233251
3048.32	0.232426
3047.71	0.231779
3047.09	0.231375
3046.47	0.231059
3045.85	0.230563
3045.24	0.230157
3044.62	0.229764
3044	0.229117
3043.38	0.22869
3042.77	0.228416
3042.15	0.228175
3041.53	0.228114
3040.91	0.22782
3040.3	0.227468
3039.68	0.227245
3039.06	0.226675
3038.44	0.226177
3037.82	0.225675
3037.2	0.225289
3036.59	0.225046
3035.97	0.224674
3035.35	0.224183
3034.73	0.223891
3034.11	0.223491
3033.49	0.223069
3032.87	0.222711
3032.25	0.222534
3031.63	0.222199
3031.01	0.221931
3030.39	0.221699
3029.77	0.221498
3029.15	0.221412
3028.54	0.221215
3027.92	0.221069
3027.3	0.220943
3026.68	0.220765
3026.05	0.220671
3025.43	0.220585
3024.81	0.220453
3024.19	0.220441
3023.57	0.220331
3022.95	0.220242
3022.33	0.220126
3021.71	0.220016
3021.09	0.219845
3020.47	0.219742
3019.85	0.219742
3019.23	0.219773
3018.61	0.219827
3017.98	0.219833
3017.36	0.219827
3016.74	0.219818
3016.12	0.219736
3015.5	0.219667
3014.88	0.219629
3014.25	0.219612
3013.63	0.219468
3013.01	0.219358
3012.39	0.219321
3011.76	0.219232
3011.14	0.219183
3010.52	0.219165
3009.9	0.21915
3009.27	0.219217
3008.65	0.219161
3008.03	0.219114
3007.4	0.219112
3006.78	0.218902
3006.16	0.218811
3005.54	0.21865
3004.91	0.218558
3004.29	0.218539
3003.66	0.218482
3003.04	0.218407
3002.42	0.21833
3001.79	0.218273
3001.17	0.218246
3000.54	0.218188
2999.92	0.218164
2999.3	0.218044
2998.67	0.218028
2998.05	0.218015
2997.42	0.217947
2996.8	0.217961
2996.17	0.217935
2995.55	0.217964
2994.92	0.217954
2994.3	0.217832
2993.67	0.217821
2993.05	0.217766
2992.42	0.21769
2991.8	0.217675
2991.17	0.217621
2990.55	0.217625
2989.92	0.217668
2989.29	0.217628
2988.67	0.217611
2988.04	0.21751
2987.42	0.217449
2986.79	0.217433
2986.16	0.217313
2985.54	0.217241
2984.91	0.217168
2984.28	0.217173
2983.66	0.217164
2983.03	0.217083
2982.4	0.217137
2981.78	0.217099
2981.15	0.216968
2980.52	0.216934
2979.9	0.216832
2979.27	0.216921
2978.64	0.216861
2978.01	0.216841
2977.39	0.216847
2976.76	0.216781
2976.13	0.216786
2975.5	0.216789
2974.87	0.216747
2974.25	0.216801
2973.62	0.216634
2972.99	0.216543
2972.36	0.216395
2971.73	0.216337
2971.1	0.216389
2970.47	0.216379
2969.85	0.216455
2969.22	0.216518
2968.59	0.216511
2967.96	0.216493
2967.33	0.216435
2966.7	0.216372
2966.07	0.216252
2965.44	0.216043
2964.81	0.215968
2964.18	0.215907
2963.55	0.215966
2962.92	0.216002
2962.29	0.216002
2961.66	0.216026
2961.03	0.215977
2960.4	0.215882
2959.77	0.21586
2959.14	0.21587
2958.51	0.215982
2957.88	0.216029
2957.25	0.215943
2956.62	0.215902
2955.99	0.215817
2955.36	0.215767
2954.73	0.215607
2954.09	0.21565
2953.46	0.215735
2952.83	0.21586
2952.2	0.215958
2951.57	0.216038
2950.94	0.2161
2950.3	0.216085
2949.67	0.215964
2949.04	0.215901
2948.41	0.215864
2947.78	0.215804
2947.14	0.215841
2946.51	0.215827
2945.88	0.215932
2945.25	0.215899
2944.61	0.215905
2943.98	0.215946
2943.35	0.216017
2942.71	0.21581
2942.08	0.215643
2941.45	0.21548
2940.82	0.215411
2940.18	0.215263
2939.55	0.215246
2938.91	0.215406
2938.28	0.215415
2937.65	0.215267
2937.01	0.215132
2936.38	0.215084
2935.75	0.215074
2935.11	0.214995
2934.48	0.214923
2933.84	0.214902
2933.21	0.214779
2932.57	0.214692
2931.94	0.214606
2931.3	0.214573
2930.67	0.214613
2930.03	0.214604
2929.4	0.214466
2928.76	0.214432
2928.13	0.214453
2927.49	0.214476
2926.86	0.214362
2926.22	0.214265
2925.59	0.214233
2924.95	0.214121
2924.32	0.213933
2923.68	0.213939
2923.04	0.213955
2922.41	0.213947
2921.77	0.213874
2921.13	0.213863
2920.5	0.213845
2919.86	0.213801
2919.23	0.213802
2918.59	0.213875
2917.95	0.213883
2917.31	0.213781
2916.68	0.213807
2916.04	0.213713
2915.4	0.213568
2914.77	0.213528
2914.13	0.213482
2913.49	0.213472
2912.85	0.213429
2912.22	0.213307
2911.58	0.213293
2910.94	0.213285
2910.3	0.213238
2909.66	0.213227
2909.03	0.213203
2908.39	0.213141
2907.75	0.213058
2907.11	0.212954
2906.47	0.212964
2905.83	0.213095
2905.19	0.213127
2904.56	0.213071
2903.92	0.213034
2903.28	0.212982
2902.64	0.212922
2902	0.212816
2901.36	0.21289
2900.72	0.212878
2900.08	0.212836
2899.44	0.212776
2898.8	0.212709
2898.16	0.212806
2897.52	0.212765
2896.88	0.21271
2896.24	0.212727
2895.6	0.212617
2894.96	0.212554
2894.32	0.212575
2893.68	0.212514
2893.04	0.212546
2892.4	0.212491
2891.76	0.212498
2891.12	0.212414
2890.48	0.212347
2889.83	0.212324
2889.19	0.212284
2888.55	0.212202
2887.91	0.212079
2887.27	0.212106
2886.63	0.212116
2885.98	0.21209
2885.34	0.212001
2884.7	0.21196
2884.06	0.211918
2883.42	0.212003
2882.77	0.21196
2882.13	0.212111
2881.49	0.212162
2880.85	0.212188
2880.2	0.212049
2879.56	0.211921
2878.92	0.211779
2878.28	0.211759
2877.63	0.211663
2876.99	0.211784
2876.35	0.211739
2875.7	0.211819
2875.06	0.211881
2874.42	0.211895
2873.77	0.211838
2873.13	0.211795
2872.48	0.211596
2871.84	0.211436
2871.2	0.211203
2870.55	0.211146
2869.91	0.211225
2869.26	0.211295
2868.62	0.211392
2867.98	0.21136
2867.33	0.211336
2866.69	0.211238
2866.04	0.211156
2865.4	0.211168
2864.75	0.211313
2864.11	0.211325
2863.46	0.211372
2862.82	0.211332
2862.17	0.211299
2861.52	0.211151
2860.88	0.210987
2860.23	0.21091
2859.59	0.210944
2858.94	0.210997
2858.29	0.211001
2857.65	0.210902
2857	0.210725
2856.36	0.210686
2855.71	0.210615
2855.06	0.210611
2854.42	0.210727
2853.77	0.210897
2853.12	0.210891
2852.48	0.210858
2851.83	0.210876
2851.18	0.210874
2850.53	0.210831
2849.89	0.210808
2849.24	0.210705
2848.59	0.210712
2847.94	0.210624
2847.3	0.21069
2846.65	0.21077
2846	0.210669
2845.35	0.210604
2844.7	0.210583
2844.06	0.210435
2843.41	0.210511
2842.76	0.210568
2842.11	0.210638
2841.46	0.210606
2840.81	0.210491
2840.16	0.210493
2839.52	0.210411
2838.87	0.210261
2838.22	0.21034
2837.57	0.210307
2836.92	0.210232
2836.27	0.210122
2835.62	0.210063
2834.97	0.21004
2834.32	0.209963
2833.67	0.209952
2833.02	0.209859
2832.37	0.20973
2831.72	0.209742
2831.07	0.20977
2830.42	0.209722
2829.77	0.209734
2829.12	0.209812
2828.47	0.209795
2827.82	0.209682
2827.17	0.209701
2826.51	0.209691
2825.86	0.209641
2825.21	0.209479
2824.56	0.209432
2823.91	0.209313
2823.26	0.209206
2822.61	0.209235
2821.96	0.20926
2821.3	0.209315
2820.65	0.209316
2820	0.209365
2819.35	0.209395
2818.7	0.209301
2818.04	0.209168
2817.39	0.208978
2816.74	0.208775
2816.09	0.208789
2815.43	0.208833
2814.78	0.208923
2814.13	0.209001
2813.47	0.209026
2812.82	0.209035
2812.17	0.208862
2811.51	0.208761
2810.86	0.20876
2810.21	0.208776
2809.55	0.208625
2808.9	0.208561
2808.25	0.208572
2807.59	0.208633
2806.94	0.208625
2806.28	0.208686
2805.63	0.208599
2804.98	0.20855
2804.32	0.208451
2803.67	0.20844
2803.01	0.208389
2802.36	0.208497
2801.7	0.208678
2801.05	0.208702
2800.39	0.208684
2799.74	0.208572
2799.08	0.208661
2798.43	0.208562
2797.77	0.208425
2797.12	0.208468
2796.46	0.208405
2795.8	0.208228
2795.15	0.208204
2794.49	0.208017
2793.84	0.208146
2793.18	0.208133
2792.52	0.208174
2791.87	0.208129
2791.21	0.208174
2790.55	0.20816
2789.9	0.208081
2789.24	0.207994
2788.58	0.207984
2787.93	0.207945
2787.27	0.207976
2786.61	0.207972
2785.95	0.208018
2785.3	0.208097
2784.64	0.207933
2783.98	0.20794
2783.32	0.207818
2782.67	0.207822
2782.01	0.207815
2781.35	0.20782
2780.69	0.207719
2780.03	0.2078
2779.38	0.207753
2778.72	0.207743
2778.06	0.207654
2777.4	0.207657
2776.74	0.207418
2776.08	0.207357
2775.42	0.207341
2774.76	0.207422
2774.11	0.207463
2773.45	0.207586
2772.79	0.207675
2772.13	0.207753
2771.47	0.207726
2770.81	0.20765
2770.15	0.207662
2769.49	0.207571
2768.83	0.207403
2768.17	0.207433
2767.51	0.207462
2766.85	0.207425
2766.19	0.207404
2765.53	0.207296
2764.87	0.207356
2764.21	0.207339
2763.55	0.207395
2762.88	0.207377
2762.22	0.207324
2761.56	0.207125
2760.9	0.20716
2760.24	0.207269
2759.58	0.207375
2758.92	0.207506
2758.26	0.207638
2757.59	0.207608
2756.93	0.207348
2756.27	0.207053
2755.61	0.207026
2754.95	0.207122
2754.28	0.207216
2753.62	0.207407
2752.96	0.207611
2752.3	0.20778
2751.63	0.207682
2750.97	0.207525
2750.31	0.207444
2749.64	0.207342
2748.98	0.207114
2748.32	0.206891
2747.65	0.206863
2746.99	0.206747
2746.33	0.206734
2745.66	0.206793
2745	0.206842
2744.34	0.206891
2743.67	0.206869
2743.01	0.206664
2742.34	0.206657
2741.68	0.206527
2741.02	0.206457
2740.35	0.206457
2739.69	0.206329
2739.02	0.206286
2738.36	0.206262
2737.69	0.206151
2737.03	0.206309
2736.36	0.206527
2735.7	0.206613
2735.03	0.206605
2734.37	0.206408
2733.7	0.206175
2733.04	0.206009
2732.37	0.205987
2731.7	0.206117
2731.04	0.206144
2730.37	0.206147
2729.71	0.206138
2729.04	0.206096
2728.37	0.206035
2727.71	0.20591
2727.04	0.205946
2726.37	0.205896
2725.71	0.205721
2725.04	0.205587
2724.37	0.205587
2723.71	0.205606
2723.04	0.205785
2722.37	0.205748
2721.71	0.205827
2721.04	0.205846
2720.37	0.205777
2719.7	0.20557
2719.03	0.205495
2718.37	0.205472
2717.7	0.205553
2717.03	0.205475
2716.36	0.205558
2715.69	0.205652
2715.03	0.205622
2714.36	0.205563
2713.69	0.205527
2713.02	0.205394
2712.35	0.205321
2711.68	0.205383
2711.01	0.205451
2710.34	0.205409
2709.67	0.205419
2709.01	0.205405
2708.34	0.205293
2707.67	0.205127
2707	0.205063
2706.33	0.205052
2705.66	0.204958
2704.99	0.204847
2704.32	0.204958
2703.65	0.205064
2702.98	0.205129
2702.31	0.205119
2701.64	0.20517
2700.96	0.205098
2700.29	0.205013
2699.62	0.204934
2698.95	0.204896
2698.28	0.20492
2697.61	0.204962
2696.94	0.205057
2696.27	0.205108
2695.6	0.205215
2694.92	0.205198
2694.25	0.204977
2693.58	0.204915
2692.91	0.204944
2692.24	0.204942
2691.57	0.205034
2690.89	0.205037
2690.22	0.205104
2689.55	0.204977
2688.88	0.204738
2688.2	0.204836
2687.53	0.20478
2686.86	0.20473
2686.18	0.204609
2685.51	0.204513
2684.84	0.204334
2684.17	0.204317
2683.49	0.204287
2682.82	0.204373
2682.14	0.204279
2681.47	0.204375
2680.8	0.204344
2680.12	0.204387
2679.45	0.204419
2678.78	0.204588
2678.1	0.204642
2677.43	0.204776
2676.75	0.20479
2676.08	0.204932
2675.4	0.204873
2674.73	0.204839
2674.05	0.204649
2673.38	0.204656
2672.7	0.204587
2672.03	0.204568
2671.35	0.204657
2670.68	0.204622
2670	0.204492
2669.33	0.204361
2668.65	0.204221
2667.98	0.204317
2667.3	0.20435
2666.62	0.204282
2665.95	0.204355
2665.27	0.204296
2664.59	0.204302
2663.92	0.2043
2663.24	0.204395
2662.56	0.204447
2661.89	0.204441
2661.21	0.204303
2660.53	0.204242
2659.86	0.204203
2659.18	0.204252
2658.5	0.204336
2657.83	0.204458
2657.15	0.204392
2656.47	0.2043
2655.79	0.204232
2655.11	0.204219
2654.44	0.204265
2653.76	0.204433
2653.08	0.204618
2652.4	0.204844
2651.72	0.204896
2651.05	0.204984
2650.37	0.205045
2649.69	0.204993
2649.01	0.204968
2648.33	0.204954
2647.65	0.204863
2646.97	0.204805
2646.29	0.204621
2645.61	0.204588
2644.93	0.204605
2644.25	0.20466
2643.57	0.204712
2642.9	0.204821
2642.22	0.204809
2641.54	0.204764
2640.86	0.204583
2640.18	0.204577
2639.49	0.204654
2638.81	0.204791
2638.13	0.204749
2637.45	0.204839
2636.77	0.20484
2636.09	0.204781
2635.41	0.204655
2634.73	0.204473
2634.05	0.204346
2633.37	0.204164
2632.69	0.203913
2632	0.203846
2631.32	0.203827
2630.64	0.204072
2629.96	0.204115
2629.28	0.204093
2628.6	0.204095
2627.91	0.204012
2627.23	0.203762
2626.55	0.203683
2625.87	0.203515
2625.18	0.203592
2624.5	0.203641
2623.82	0.203541
2623.14	0.203395
2622.45	0.203307
2621.77	0.203222
2621.09	0.20328
2620.4	0.203306
2619.72	0.203372
2619.04	0.203405
2618.35	0.203159
2617.67	0.202983
2616.98	0.202836
2616.3	0.202875
2615.62	0.203031
2614.93	0.203197
2614.25	0.203298
2613.56	0.203211
2612.88	0.203212
2612.19	0.203223
2611.51	0.203228
2610.83	0.203225
2610.14	0.203245
2609.46	0.20307
2608.77	0.203039
2608.08	0.202805
2607.4	0.202785
2606.71	0.202726
2606.03	0.202826
2605.34	0.202836
2604.66	0.202926
2603.97	0.202896
2603.28	0.202983
2602.6	0.203041
2601.91	0.20319
2601.23	0.203142
2600.54	0.203089
2599.85	0.202953
2599.17	0.203105
2598.48	0.20309
2597.79	0.20311
2597.11	0.203015
2596.42	0.20298
2595.73	0.202935
2595.04	0.202821
2594.36	0.20269
2593.67	0.202776
2592.98	0.202639
2592.29	0.20267
2591.61	0.202575
2590.92	0.202535
2590.23	0.20265
2589.54	0.202616
2588.85	0.202629
2588.16	0.20266
2587.48	0.202659
2586.79	0.202829
2586.1	0.203084
2585.41	0.203205
2584.72	0.203419
2584.03	0.203491
2583.34	0.203571
2582.65	0.203506
2581.96	0.203287
2581.27	0.203156
2580.58	0.203145
2579.9	0.203123
2579.21	0.203185
2578.52	0.203316
2577.83	0.203379
2577.14	0.203435
2576.44	0.203333
2575.75	0.203346
2575.06	0.203295
2574.37	0.203154
2573.68	0.203128
2572.99	0.202966
2572.3	0.202718
2571.61	0.202697
2570.92	0.202611
2570.23	0.202874
2569.54	0.203036
2568.84	0.203169
2568.15	0.203238
2567.46	0.203112
2566.77	0.203032
2566.08	0.202958
2565.39	0.202924
2564.69	0.203147
2564	0.203076
2563.31	0.203153
2562.62	0.203057
2561.92	0.203152
2561.23	0.203197
2560.54	0.203285
2559.85	0.2034
2559.15	0.203389
2558.46	0.203286
2557.77	0.203383
2557.07	0.203343
2556.38	0.203346
2555.69	0.203379
2554.99	0.203567
2554.3	0.203421
2553.6	0.203159
2552.91	0.203114
2552.22	0.20311
2551.52	0.203145
2550.83	0.203213
2550.13	0.203453
2549.44	0.2037
2548.74	0.203615
2548.05	0.203573
2547.35	0.203739
2546.66	0.203835
2545.96	0.204123
2545.27	0.204423
2544.57	0.204711
2543.88	0.204989
2543.18	0.205203
2542.49	0.205475
2541.79	0.205777
2541.1	0.2058
2540.4	0.205868
2539.7	0.205917
2539.01	0.20584
2538.31	0.205929
2537.61	0.206212
2536.92	0.206462
2536.22	0.206547
2535.52	0.206616
2534.83	0.20669
2534.13	0.206626
2533.43	0.206663
2532.74	0.206737
2532.04	0.206731
2531.34	0.206806
2530.64	0.206846
2529.95	0.207151
2529.25	0.207361
2528.55	0.207435
2527.85	0.207625
2527.15	0.207773
2526.46	0.207748
2525.76	0.207773
2525.06	0.207715
2524.36	0.207526
2523.66	0.207505
2522.96	0.207504
2522.26	0.207626
2521.57	0.207761
2520.87	0.207821
2520.17	0.207815
2519.47	0.207809
2518.77	0.207513
2518.07	0.207553
2517.37	0.207424
2516.67	0.207413
2515.97	0.207211
2515.27	0.207142
2514.57	0.206995
2513.87	0.206976
2513.17	0.206716
2512.47	0.20677
2511.77	0.206752
2511.07	0.207024
2510.37	0.206963
2509.66	0.206878
2508.96	0.206696
2508.26	0.206339
2507.56	0.20584
2506.86	0.205485
2506.16	0.205265
2505.46	0.20525
2504.76	0.205067
2504.05	0.20513
2503.35	0.205161
2502.65	0.204982
2501.95	0.205111
2501.25	0.204905
2500.54	0.204626
2499.84	0.204063
2499.14	0.203659
2498.44	0.203356
2497.73	0.203051
2497.03	0.203139
2496.33	0.203386
2495.62	0.203188
2494.92	0.203036
2494.22	0.202865
2493.51	0.202817
2492.81	0.202832
2492.11	0.202812
2491.4	0.203073
2490.7	0.203119
2489.99	0.202947
2489.29	0.20268
2488.59	0.20258
2487.88	0.20243
2487.18	0.20244
2486.47	0.202384
2485.77	0.202556
2485.06	0.20267
2484.36	0.202726
2483.65	0.2026
2482.95	0.202472
2482.24	0.202289
2481.54	0.202164
2480.83	0.201881
2480.13	0.202022
2479.42	0.202176
2478.71	0.20222
2478.01	0.202206
2477.3	0.202165
2476.6	0.201889
2475.89	0.201772
2475.18	0.201541
2474.48	0.201769
2473.77	0.201806
2473.06	0.201617
2472.36	0.201534
2471.65	0.201719
2470.94	0.201615
2470.24	0.201692
2469.53	0.201847
2468.82	0.201961
2468.11	0.201801
2467.41	0.201697
2466.7	0.201488
2465.99	0.201284
2465.28	0.201094
2464.57	0.200805
2463.87	0.200853
2463.16	0.201022
2462.45	0.201074
2461.74	0.201326
2461.03	0.201444
2460.32	0.201181
2459.61	0.201248
2458.9	0.200977
2458.2	0.201017
2457.49	0.201075
2456.78	0.201145
2456.07	0.201487
2455.36	0.201671
2454.65	0.201711
2453.94	0.201845
2453.23	0.201672
2452.52	0.20148
2451.81	0.201378
2451.1	0.201467
2450.39	0.201398
2449.68	0.201152
2448.97	0.20113
2448.26	0.200964
2447.55	0.200827
2446.83	0.200619
2446.12	0.200694
2445.41	0.200881
2444.7	0.200957
2443.99	0.2009
2443.28	0.201028
2442.57	0.201062
2441.85	0.20131
2441.14	0.201222
2440.43	0.201119
2439.72	0.200983
2439.01	0.201057
2438.29	0.201045
2437.58	0.201183
2436.87	0.201217
2436.16	0.201543
2435.44	0.201465
2434.73	0.201198
2434.02	0.200961
2433.3	0.200956
2432.59	0.200914
2431.88	0.200777
2431.16	0.200885
2430.45	0.200826
2429.74	0.200816
2429.02	0.200609
2428.31	0.200645
2427.6	0.200585
2426.88	0.200675
2426.17	0.20067
2425.45	0.201078
2424.74	0.200859
2424.02	0.200972
2423.31	0.20073
2422.59	0.200701
2421.88	0.200644
2421.16	0.200887
2420.45	0.201083
2419.73	0.201375
2419.02	0.201242
2418.3	0.201254
2417.59	0.201027
2416.87	0.200953
2416.16	0.200817
2415.44	0.200883
2414.72	0.200854
2414.01	0.200906
2413.29	0.200982
2412.57	0.200965
2411.86	0.201022
2411.14	0.201039
2410.42	0.201153
2409.71	0.201339
2408.99	0.201147
2408.27	0.200952
2407.56	0.200673
2406.84	0.200413
2406.12	0.200449
2405.4	0.200356
2404.69	0.200655
2403.97	0.200967
2403.25	0.200924
2402.53	0.200878
2401.81	0.200779
2401.1	0.200875
2400.38	0.20086
2399.66	0.200843
2398.94	0.200957
2398.22	0.200928
2397.5	0.200793
2396.78	0.200829
2396.06	0.200935
2395.35	0.200944
2394.63	0.200787
2393.91	0.200917
2393.19	0.200935
2392.47	0.200967
2391.75	0.201007
2391.03	0.201247
2390.31	0.201325
2389.59	0.201195
2388.87	0.201029
2388.15	0.201137
2387.43	0.201183
2386.71	0.201325
2385.98	0.201417
2385.26	0.201481
2384.54	0.201322
2383.82	0.201206
2383.1	0.201241
2382.38	0.201319
2381.66	0.201336
2380.94	0.201362
2380.21	0.201408
2379.49	0.2015
2378.77	0.201602
2378.05	0.201519
2377.33	0.201692
2376.6	0.201696
2375.88	0.201561
2375.16	0.201538
2374.44	0.201368
2373.71	0.201391
2372.99	0.201362
2372.27	0.201291
2371.55	0.201393
2370.82	0.201464
2370.1	0.201361
2369.38	0.20153
2368.65	0.2014
2367.93	0.201404
2367.21	0.201393
2366.48	0.201441
2365.76	0.201305
2365.03	0.201502
2364.31	0.201418
2363.58	0.201673
2362.86	0.201671
2362.14	0.20169
2361.41	0.201644
2360.69	0.201572
2359.96	0.201424
2359.24	0.201405
2358.51	0.201244
2357.79	0.201448
2357.06	0.20141
2356.33	0.201607
2355.61	0.201583
2354.88	0.201563
2354.16	0.201361
2353.43	0.201268
2352.71	0.201252
2351.98	0.201496
2351.25	0.201376
2350.53	0.201556
2349.8	0.20146
2349.07	0.201515
2348.35	0.201221
2347.62	0.201311
2346.89	0.201327
2346.17	0.201595
2345.44	0.201404
2344.71	0.201481
2343.98	0.201445
2343.26	0.201411
2342.53	0.201232
2341.8	0.201403
2341.07	0.201582
2340.34	0.201655
2339.62	0.201466
2338.89	0.201279
2338.16	0.201129
2337.43	0.200899
2336.7	0.201041
2335.97	0.201322
2335.24	0.201619
2334.52	0.201786
2333.79	0.201718
2333.06	0.201468
2332.33	0.20132
2331.6	0.201254
2330.87	0.201467
2330.14	0.201723
2329.41	0.202056
2328.68	0.202508
2327.95	0.202709
2327.22	0.202531
2326.49	0.202458
2325.76	0.202583
2325.03	0.202412
2324.3	0.202758
2323.57	0.202997
2322.83	0.203467
2322.1	0.203689
2321.37	0.203802
2320.64	0.204091
2319.91	0.204364
2319.18	0.204405
2318.45	0.204731
2317.71	0.204651
2316.98	0.204533
2316.25	0.204429
2315.52	0.204375
2314.79	0.204308
2314.05	0.20416
2313.32	0.204051
2312.59	0.203744
2311.86	0.203589
2311.12	0.203448
2310.39	0.203606
2309.66	0.203447
2308.92	0.203386
2308.19	0.203128
2307.46	0.203152
2306.72	0.20291
2305.99	0.202759
2305.26	0.202465
2304.52	0.202243
2303.79	0.202117
2303.05	0.202148
2302.32	0.202233
2301.59	0.202582
2300.85	0.202739
2300.12	0.202631
2299.38	0.202393
2298.65	0.20205
2297.91	0.201849
2297.18	0.201736
2296.44	0.201778
2295.71	0.201757
2294.97	0.201731
2294.24	0.201813
2293.5	0.201888
2292.76	0.20174
2292.03	0.20183
2291.29	0.201958
2290.56	0.202033
2289.82	0.202004
2289.08	0.201856
2288.35	0.201849
2287.61	0.201771
2286.87	0.201655
2286.14	0.201821
2285.4	0.20182
2284.66	0.201922
2283.93	0.201805
2283.19	0.201665
2282.45	0.201641
2281.71	0.201588
2280.98	0.201611
2280.24	0.201597
2279.5	0.201603
2278.76	0.201637
2278.02	0.201548
2277.29	0.201562
2276.55	0.201739
2275.81	0.201678
2275.07	0.201598
2274.33	0.20157
2273.59	0.201785
2272.85	0.201786
2272.11	0.201944
2271.37	0.202186
2270.64	0.202265
2269.9	0.202088
2269.16	0.201898
2268.42	0.201736
2267.68	0.201823
2266.94	0.201493
2266.2	0.20144
2265.46	0.201505
2264.72	0.201517
2263.98	0.201639
2263.23	0.201808
2262.49	0.201871
2261.75	0.201912
2261.01	0.201653
2260.27	0.201432
2259.53	0.201181
2258.79	0.201185
2258.05	0.201479
2257.31	0.201753
2256.56	0.202085
2255.82	0.202315
2255.08	0.202316
2254.34	0.202148
2253.6	0.201754
2252.85	0.20152
2252.11	0.201525
2251.37	0.201652
2250.63	0.201826
2249.88	0.2021
2249.14	0.202178
2248.4	0.201908
2247.65	0.201514
2246.91	0.201407
2246.17	0.201214
2245.42	0.201004
2244.68	0.201006
2243.94	0.201332
2243.19	0.201413
2242.45	0.201486
2241.71	0.201762
2240.96	0.20212
2240.22	0.202008
2239.47	0.201761
2238.73	0.20184
2237.98	0.201956
2237.24	0.201967
2236.49	0.202161
2235.75	0.202385
2235	0.202476
2234.26	0.202534
2233.51	0.202316
2232.77	0.202118
2232.02	0.202196
2231.28	0.202359
2230.53	0.202386
2229.78	0.202623
2229.04	0.202829
2228.29	0.202824
2227.54	0.202639
2226.8	0.202555
2226.05	0.202482
2225.3	0.202392
2224.56	0.202486
2223.81	0.202692
2223.06	0.203176
2222.32	0.203183
2221.57	0.20334
2220.82	0.203333
2220.07	0.20309
2219.33	0.202857
2218.58	0.202954
2217.83	0.202999
2217.08	0.203398
2216.33	0.203579
2215.59	0.203715
2214.84	0.203757
2214.09	0.203739
2213.34	0.203519
2212.59	0.203655
2211.84	0.203825
2211.09	0.20399
2210.34	0.20413
2209.59	0.204129
2208.84	0.204168
2208.09	0.204256
2207.35	0.2042
2206.6	0.204277
2205.85	0.204329
2205.1	0.204275
2204.35	0.204349
2203.59	0.204235
2202.84	0.204311
2202.09	0.204605
2201.34	0.204558
2200.59	0.20447
2199.84	0.204303
2199.09	0.204209
2198.34	0.204199
2197.59	0.204017
2196.84	0.204158
2196.09	0.204485
2195.33	0.204334
2194.58	0.204536
2193.83	0.204733
2193.08	0.205
2192.33	0.205228
2191.57	0.205247
2190.82	0.205259
2190.07	0.205209
2189.32	0.204858
2188.56	0.205127
2187.81	0.20523
2187.06	0.205604
2186.3	0.205682
2185.55	0.205459
2184.8	0.205183
2184.04	0.204951
2183.29	0.20471
2182.54	0.205103
2181.78	0.205448
2181.03	0.205789
2180.27	0.205684
2179.52	0.205504
2178.77	0.205131
2178.01	0.204665
2177.26	0.204455
2176.5	0.204562
2175.75	0.204938
2174.99	0.205003
2174.24	0.204917
2173.48	0.204853
2172.73	0.204718
2171.97	0.204557
2171.22	0.204623
2170.46	0.204526
2169.7	0.204887
2168.95	0.20478
2168.19	0.204737
2167.44	0.204683
2166.68	0.204828
2165.92	0.204937
2165.17	0.205179
2164.41	0.205194
2163.65	0.205263
2162.9	0.205099
2162.14	0.20522
2161.38	0.205184
2160.62	0.205211
2159.87	0.205461
2159.11	0.205649
2158.35	0.20572
2157.59	0.205461
2156.83	0.205282
2156.08	0.205106
2155.32	0.20484
2154.56	0.205035
2153.8	0.205308
2153.04	0.205671
2152.28	0.205974
2151.53	0.206067
2150.77	0.206015
2150.01	0.205684
2149.25	0.205613
2148.49	0.20597
2147.73	0.205903
2146.97	0.205952
2146.21	0.205967
2145.45	0.205793
2144.69	0.205616
2143.93	0.205406
2143.17	0.205575
2142.41	0.205766
2141.65	0.205679
2140.89	0.20568
2140.13	0.205527
2139.37	0.205362
2138.61	0.205125
2137.85	0.20485
2137.08	0.205081
2136.32	0.20523
2135.56	0.205231
2134.8	0.204969
2134.04	0.204589
2133.28	0.204522
2132.51	0.20452
2131.75	0.204473
2130.99	0.205063
2130.23	0.205508
2129.47	0.20567
2128.7	0.205556
2127.94	0.205499
2127.18	0.205264
2126.41	0.205531
2125.65	0.205431
2124.89	0.205863
2124.12	0.206189
2123.36	0.206239
2122.6	0.206311
2121.83	0.206165
2121.07	0.20596
2120.31	0.205801
2119.54	0.205595
2118.78	0.205585
2118.01	0.205651
2117.25	0.2055
2116.48	0.20548
2115.72	0.205611
2114.95	0.206025
2114.19	0.206354
2113.42	0.206422
2112.66	0.206674
2111.89	0.206868
2111.13	0.206898
2110.36	0.206892
2109.6	0.206948
2108.83	0.207092
2108.07	0.207098
2107.3	0.206868
2106.53	0.207106
2105.77	0.20691
2105	0.206742
2104.23	0.206611
2103.47	0.206631
2102.7	0.206377
2101.93	0.206213
2101.17	0.206114
2100.4	0.20615
2099.63	0.205987
2098.86	0.206061
2098.1	0.206017
2097.33	0.20616
2096.56	0.205895
2095.79	0.205902
2095.02	0.205854
2094.26	0.205918
2093.49	0.206129
2092.72	0.206339
2091.95	0.206334
2091.18	0.206269
2090.41	0.206315
2089.64	0.206188
2088.87	0.206189
2088.11	0.206144
2087.34	0.20621
2086.57	0.20596
2085.8	0.206003
2085.03	0.205812
2084.26	0.20626
2083.49	0.20593
2082.72	0.205924
2081.95	0.205723
2081.18	0.205572
2080.41	0.205487
2079.63	0.205396
2078.86	0.205572
2078.09	0.206002
2077.32	0.206026
2076.55	0.206227
2075.78	0.206006
2075.01	0.205985
2074.24	0.206068
2073.47	0.205518
2072.69	0.205594
2071.92	0.205537
2071.15	0.205675
2070.38	0.205766
2069.6	0.205762
2068.83	0.205887
2068.06	0.206101
2067.29	0.205739
2066.51	0.205701
2065.74	0.205703
2064.97	0.205796
2064.19	0.206098
2063.42	0.206349
2062.65	0.206509
2061.87	0.206814
2061.1	0.206634
2060.33	0.206518
2059.55	0.206479
2058.78	0.206538
2058	0.206697
2057.23	0.206663
2056.46	0.206691
2055.68	0.20672
2054.91	0.206574
2054.13	0.206636
2053.36	0.20643
2052.58	0.206425
2051.81	0.206413
2051.03	0.206457
2050.26	0.206826
2049.48	0.206996
2048.7	0.207213
2047.93	0.207503
2047.15	0.207671
2046.38	0.20767
2045.6	0.207751
2044.82	0.207674
2044.05	0.207462
2043.27	0.207127
2042.49	0.207218
2041.72	0.207171
2040.94	0.207198
2040.16	0.207228
2039.38	0.207193
2038.61	0.207164
2037.83	0.207264
2037.05	0.207455
2036.27	0.207635
2035.5	0.207598
2034.72	0.207391
2033.94	0.207509
2033.16	0.207235
2032.38	0.207393
2031.6	0.207902
2030.83	0.208173
2030.05	0.208155
2029.27	0.20819
2028.49	0.208326
2027.71	0.208425
2026.93	0.208299
2026.15	0.208053
2025.37	0.208
2024.59	0.20783
2023.81	0.207443
2023.03	0.20713
2022.25	0.20722
2021.47	0.207363
2020.69	0.207751
2019.91	0.208028
2019.13	0.208177
2018.35	0.208321
2017.57	0.208392
2016.79	0.208254
2016	0.208229
2015.22	0.208154
2014.44	0.208518
2013.66	0.208479
2012.88	0.208097
2012.1	0.208256
2011.31	0.208347
2010.53	0.208655
2009.75	0.208759
2008.97	0.208702
2008.19	0.208778
2007.4	0.208539
2006.62	0.20846
2005.84	0.208793
2005.05	0.208841
2004.27	0.209317
2003.49	0.209324
2002.7	0.20927
2001.92	0.209224
2001.14	0.209418
2000.35	0.209719
1999.57	0.209856
1998.79	0.209865
1998	0.209839
1997.22	0.209669
1996.43	0.209555
1995.65	0.209531
1994.86	0.209726
1994.08	0.210051
1993.29	0.209818
1992.51	0.20998
1991.72	0.209759
1990.94	0.209892
1990.15	0.209998
1989.37	0.209974
1988.58	0.21044
1987.8	0.210627
1987.01	0.210351
1986.22	0.210529
1985.44	0.210154
1984.65	0.210075
1983.86	0.210006
1983.08	0.209988
1982.29	0.210459
1981.5	0.210526
1980.72	0.210555
1979.93	0.210687
1979.14	0.210554
1978.35	0.210423
1977.57	0.210717
1976.78	0.210782
1975.99	0.210851
1975.2	0.211129
1974.42	0.211092
1973.63	0.21102
1972.84	0.210882
1972.05	0.210824
1971.26	0.210961
1970.47	0.210832
1969.68	0.210617
1968.89	0.210897
1968.11	0.210895
1967.32	0.210934
1966.53	0.211375
1965.74	0.211515
1964.95	0.211757
1964.16	0.211684
1963.37	0.211275
1962.58	0.211341
1961.79	0.211255
1961	0.211373
1960.21	0.211663
1959.42	0.211759
1958.63	0.21164
1957.83	0.211321
1957.04	0.211141
1956.25	0.211507
1955.46	0.211708
1954.67	0.211888
1953.88	0.211671
1953.09	0.211684
1952.3	0.211285
1951.5	0.211188
1950.71	0.211264
1949.92	0.211301
1949.13	0.211726
1948.33	0.211745
1947.54	0.211742
1946.75	0.211883
1945.96	0.212184
1945.16	0.212443
1944.37	0.212625
1943.58	0.212341
1942.78	0.212564
1941.99	0.212269
1941.2	0.21223
1940.4	0.212508
1939.61	0.212809
1938.81	0.213132
1938.02	0.213333
1937.23	0.213025
1936.43	0.212915
1935.64	0.213
1934.84	0.212644
1934.05	0.212883
1933.25	0.212909
1932.46	0.21308
1931.66	0.213261
1930.87	0.213278
1930.07	0.213269
1929.28	0.213752
1928.48	0.213488
1927.68	0.213964
1926.89	0.213922
1926.09	0.214278
1925.3	0.214241
1924.5	0.214163
1923.7	0.21386
1922.91	0.214028
1922.11	0.214103
1921.31	0.21445
1920.52	0.214297
1919.72	0.21464
1918.92	0.21439
1918.12	0.214392
1917.33	0.214408
1916.53	0.214358
1915.73	0.214207
1914.93	0.21418
1914.13	0.213917
1913.34	0.213805
1912.54	0.213856
1911.74	0.214036
1910.94	0.214285
1910.14	0.214247
1909.34	0.214235
1908.54	0.214544
1907.74	0.214617
1906.94	0.214717
1906.14	0.214837
1905.35	0.214915
1904.55	0.214805
1903.75	0.21461
1902.95	0.214531
1902.15	0.214918
1901.35	0.215002
1900.54	0.214965
1899.74	0.214946
1898.94	0.214924
1898.14	0.214535
1897.34	0.21443
1896.54	0.214676
1895.74	0.214934
1894.94	0.215163
1894.14	0.215255
1893.33	0.21559
1892.53	0.21565
1891.73	0.215681
1890.93	0.215804
1890.13	0.216109
1889.32	0.216047
1888.52	0.216178
1887.72	0.216193
1886.92	0.215959
1886.11	0.215812
1885.31	0.215939
1884.51	0.216192
1883.7	0.216381
1882.9	0.216372
1882.1	0.216487
1881.29	0.21645
1880.49	0.216122
1879.69	0.215953
1878.88	0.215916
1878.08	0.216272
1877.27	0.216298
1876.47	0.216166
1875.66	0.216352
1874.86	0.21644
1874.06	0.216716
1873.25	0.216822
1872.45	0.21715
1871.64	0.217374
1870.83	0.217233
1870.03	0.216925
1869.22	0.216768
1868.42	0.216787
1867.61	0.216947
1866.81	0.217223
1866	0.217759
1865.19	0.217844
1864.39	0.217868
1863.58	0.218093
1862.77	0.218229
1861.97	0.218112
1861.16	0.217826
1860.35	0.217913
1859.54	0.218025
1858.74	0.217939
1857.93	0.218156
1857.12	0.218338
1856.31	0.218143
1855.51	0.218055
1854.7	0.217864
1853.89	0.218177
1853.08	0.218255
1852.27	0.218488
1851.46	0.218807
1850.66	0.218769
1849.85	0.218739
1849.04	0.219192
1848.23	0.219454
1847.42	0.219911
1846.61	0.21993
1845.8	0.21996
1844.99	0.219666
1844.18	0.219164
1843.37	0.218987
1842.56	0.219238
1841.75	0.219533
1840.94	0.219723
1840.13	0.220024
1839.32	0.220001
1838.51	0.21993
1837.7	0.219954
1836.89	0.220328
1836.07	0.22101
1835.26	0.22114
1834.45	0.22134
1833.64	0.221967
1832.83	0.22231
1832.02	0.222762
1831.2	0.223365
1830.39	0.22387
1829.58	0.224216
1828.77	0.224038
1827.95	0.224104
1827.14	0.224633
1826.33	0.225086
1825.52	0.225418
1824.7	0.225964
1823.89	0.226646
1823.08	0.227502
1822.26	0.228
1821.45	0.228203
1820.63	0.228554
1819.82	0.228393
1819.01	0.228694
1818.19	0.228918
1817.38	0.229282
1816.56	0.229373
1815.75	0.229326
1814.93	0.229135
1814.12	0.228834
1813.3	0.228323
1812.49	0.22807
1811.67	0.227689
1810.86	0.227321
1810.04	0.226418
1809.23	0.225804
1808.41	0.225199
1807.59	0.22488
1806.78	0.224609
1805.96	0.223992
1805.15	0.223565
1804.33	0.223402
1803.51	0.223004
1802.7	0.222808
1801.88	0.222866
1801.06	0.223156
1800.24	0.223308
1799.43	0.222875
1798.61	0.222253
1797.79	0.221898
1796.97	0.22146
1796.16	0.221553
1795.34	0.221278
1794.52	0.220785
1793.7	0.220679
1792.88	0.220099
1792.06	0.219912
1791.24	0.220252
1790.43	0.220789
1789.61	0.221704
1788.79	0.222013
1787.97	0.222092
1787.15	0.222159
1786.33	0.221509
1785.51	0.221285
1784.69	0.221319
1783.87	0.221628
1783.05	0.222192
1782.23	0.222566
1781.41	0.222403
1780.59	0.222275
1779.77	0.22182
1778.95	0.221784
1778.13	0.221873
1777.3	0.221649
1776.48	0.221476
1775.66	0.221649
1774.84	0.221497
1774.02	0.221894
1773.2	0.221974
1772.37	0.222245
1771.55	0.222331
1770.73	0.222279
1769.91	0.222219
1769.08	0.222636
1768.26	0.222823
1767.44	0.223218
1766.62	0.223088
1765.79	0.222839
1764.97	0.222871
1764.15	0.223122
1763.32	0.223282
1762.5	0.223304
1761.68	0.223107
1760.85	0.223293
1760.03	0.223081
1759.2	0.222925
1758.38	0.223093
1757.55	0.222939
1756.73	0.223382
1755.91	0.223202
1755.08	0.223293
1754.26	0.223456
1753.43	0.223434
1752.6	0.223442
1751.78	0.223408
1750.95	0.223465
1750.13	0.223831
1749.3	0.223751
1748.48	0.223813
1747.65	0.223568
1746.82	0.223556
1746	0.223448
1745.17	0.223349
1744.34	0.223717
1743.52	0.223762
1742.69	0.223322
1741.86	0.222985
1741.04	0.223007
1740.21	0.223054
1739.38	0.223211
1738.55	0.223585
1737.72	0.223909
1736.9	0.223651
1736.07	0.22325
1735.24	0.22328
1734.41	0.223348
1733.58	0.22355
1732.75	0.223949
1731.93	0.224063
1731.1	0.224019
1730.27	0.223719
1729.44	0.223691
1728.61	0.22377
1727.78	0.223891
1726.95	0.223959
1726.12	0.223964
1725.29	0.223751
1724.46	0.223618
1723.63	0.223646
1722.8	0.223583
1721.97	0.223694
1721.14	0.223788
1720.31	0.223931
1719.48	0.224259
1718.65	0.224334
1717.81	0.224453
1716.98	0.224569
1716.15	0.224733
1715.32	0.224677
1714.49	0.224744
1713.66	0.224948
1712.82	0.225099
1711.99	0.22497
1711.16	0.225129
1710.33	0.225209
1709.49	0.225831
1708.66	0.225739
1707.83	0.225949
1707	0.226047
1706.16	0.225798
1705.33	0.225559
1704.5	0.225717
1703.66	0.226181
1702.83	0.226653
1701.99	0.226943
1701.16	0.227364
1700.33	0.227294
1699.49	0.226702
1698.66	0.226197
1697.82	0.226189
1696.99	0.22604
1696.15	0.226419
1695.32	0.227203
1694.48	0.22787
1693.65	0.227953
1692.81	0.228024
1691.98	0.22804
1691.14	0.228187
1690.3	0.227707
1689.47	0.228154
1688.63	0.228132
1687.8	0.228336
1686.96	0.228514
1686.12	0.228838
1685.29	0.229135
1684.45	0.229591
1683.61	0.229476
1682.78	0.230034
1681.94	0.229851
1681.1	0.230278
1680.26	0.230885
1679.43	0.231428
1678.59	0.231747
1677.75	0.232236
1676.91	0.232362
1676.07	0.232919
1675.23	0.233023
1674.4	0.233753
1673.56	0.23439
1672.72	0.235263
1671.88	0.235648
1671.04	0.236093
1670.2	0.236945
1669.36	0.237757
1668.52	0.238118
1667.68	0.23857
1666.84	0.238803
1666	0.239437
1665.16	0.239468
1664.32	0.240011
1663.48	0.241046
1662.64	0.241586
1661.8	0.242001
1660.96	0.242427
1660.12	0.242764
1659.28	0.243151
1658.44	0.243492
1657.59	0.243996
1656.75	0.244596
1655.91	0.244949
1655.07	0.245204
1654.23	0.245363
1653.38	0.245424
1652.54	0.245298
1651.7	0.245311
1650.86	0.244662
1650.01	0.244631
1649.17	0.244811
1648.33	0.244793
1647.48	0.245058
1646.64	0.245558
1645.8	0.245636
1644.95	0.24535
1644.11	0.244579
1643.27	0.244285
1642.42	0.243991
1641.58	0.243669
1640.73	0.243605
1639.89	0.243905
1639.04	0.243942
1638.2	0.243976
1637.36	0.24411
1636.51	0.243971
1635.67	0.243775
1634.82	0.243568
1633.97	0.24321
1633.13	0.243356
1632.28	0.243277
1631.44	0.243609
1630.59	0.243526
1629.74	0.243205
1628.9	0.243234
1628.05	0.243216
1627.2	0.24332
1626.36	0.243972
1625.51	0.244388
1624.66	0.244718
1623.82	0.245035
1622.97	0.24507
1622.12	0.245091
1621.27	0.244732
1620.43	0.244704
1619.58	0.24523
1618.73	0.245824
1617.88	0.245934
1617.03	0.246903
1616.19	0.247331
1615.34	0.247607
1614.49	0.24768
1613.64	0.24837
1612.79	0.248857
1611.94	0.249534
1611.09	0.249705
1610.24	0.250285
1609.39	0.250484
1608.54	0.251163
1607.69	0.252624
1606.84	0.254757
1605.99	0.256175
1605.14	0.257728
1604.29	0.25912
1603.44	0.260125
1602.59	0.261631
1601.74	0.26349
1600.89	0.266318
1600.04	0.269389
1599.18	0.272258
1598.33	0.275335
1597.48	0.278498
1596.63	0.282058
1595.78	0.286223
1594.92	0.290277
1594.07	0.295154
1593.22	0.300859
1592.37	0.30729
1591.51	0.314744
1590.66	0.323771
1589.81	0.334315
1588.96	0.346672
1588.1	0.36133
1587.25	0.37961
1586.39	0.402869
1585.54	0.431988
1584.69	0.469262
1583.83	0.51631
1582.98	0.572304
1582.12	0.637275
1581.27	0.709052
1580.42	0.781881
1579.56	0.851059
1578.71	0.91065
1577.85	0.957392
1576.99	0.987188
1576.14	1
1575.28	0.996797
1574.43	0.981485
1573.57	0.952761
1572.72	0.91595
1571.86	0.872333
1571	0.824018
1570.15	0.77018
1569.29	0.714982
1568.43	0.658988
1567.58	0.605603
1566.72	0.554923
1565.86	0.509878
1565.01	0.470914
1564.15	0.437928
1563.29	0.409155
1562.43	0.385408
1561.58	0.364419
1560.72	0.347123
1559.86	0.333302
1559	0.321582
1558.14	0.313103
1557.28	0.307169
1556.42	0.302688
1555.57	0.299425
1554.71	0.296393
1553.85	0.294116
1552.99	0.291718
1552.13	0.288662
1551.27	0.286315
1550.41	0.283488
1549.55	0.28039
1548.69	0.277374
1547.83	0.274542
1546.97	0.271189
1546.11	0.267693
1545.25	0.264068
1544.39	0.26115
1543.53	0.2589
1542.66	0.256789
1541.8	0.255616
1540.94	0.254574
1540.08	0.253141
1539.22	0.252097
1538.36	0.250958
1537.49	0.249794
1536.63	0.249132
1535.77	0.247828
1534.91	0.247204
1534.04	0.246368
1533.18	0.245681
1532.32	0.245412
1531.46	0.245285
1530.59	0.245233
1529.73	0.245087
1528.87	0.244823
1528	0.244748
1527.14	0.244233
1526.27	0.244149
1525.41	0.244039
1524.55	0.243785
1523.68	0.243497
1522.82	0.243182
1521.95	0.242911
1521.09	0.242715
1520.22	0.242176
1519.36	0.242104
1518.49	0.241821
1517.63	0.241446
1516.76	0.240921
1515.89	0.241002
1515.03	0.241033
1514.16	0.241259
1513.3	0.241361
1512.43	0.241738
1511.56	0.24214
1510.7	0.242071
1509.83	0.241875
1508.96	0.241422
1508.1	0.241309
1507.23	0.241094
1506.36	0.240975
1505.49	0.241105
1504.63	0.241611
1503.76	0.241349
1502.89	0.241367
1502.02	0.241223
1501.15	0.241504
1500.29	0.241521
1499.42	0.24173
1498.55	0.24202
1497.68	0.242649
1496.81	0.242667
1495.94	0.24264
1495.07	0.243085
1494.2	0.242818
1493.33	0.242955
1492.46	0.24311
1491.59	0.243295
1490.72	0.243449
1489.85	0.243643
1488.98	0.243674
1488.11	0.244442
1487.24	0.244791
1486.37	0.245059
1485.5	0.244714
1484.63	0.244674
1483.76	0.244446
1482.88	0.244358
1482.01	0.244536
1481.14	0.24515
1480.27	0.246312
1479.4	0.247084
1478.53	0.248014
1477.65	0.24899
1476.78	0.249936
1475.91	0.250312
1475.03	0.250254
1474.16	0.249562
1473.29	0.249038
1472.42	0.248052
1471.54	0.247023
1470.67	0.245473
1469.79	0.245126
1468.92	0.244719
1468.05	0.244501
1467.17	0.244041
1466.3	0.243844
1465.42	0.243275
1464.55	0.242812
1463.67	0.242084
1462.8	0.242199
1461.92	0.242256
1461.05	0.242117
1460.17	0.242121
1459.3	0.241981
1458.42	0.242148
1457.55	0.24266
1456.67	0.242873
1455.79	0.243017
1454.92	0.242888
1454.04	0.242607
1453.17	0.242431
1452.29	0.241757
1451.41	0.241773
1450.53	0.24196
1449.66	0.241969
1448.78	0.242144
1447.9	0.242148
1447.02	0.242404
1446.15	0.242582
1445.27	0.242273
1444.39	0.242242
1443.51	0.242524
1442.63	0.242707
1441.76	0.242976
1440.88	0.243125
1440	0.243076
1439.12	0.243132
1438.24	0.243109
1437.36	0.243463
1436.48	0.243274
1435.6	0.24303
1434.72	0.243198
1433.84	0.243351
1432.96	0.243165
1432.08	0.243373
1431.2	0.243612
1430.32	0.24392
1429.44	0.24358
1428.56	0.243353
1427.68	0.243552
1426.8	0.243675
1425.91	0.243838
1425.03	0.244182
1424.15	0.244232
1423.27	0.244475
1422.39	0.244765
1421.51	0.244831
1420.62	0.244859
1419.74	0.245345
1418.86	0.245634
1417.98	0.246096
1417.09	0.246561
1416.21	0.246671
1415.33	0.246923
1414.44	0.247017
1413.56	0.246792
1412.68	0.246632
1411.79	0.246391
1410.91	0.246441
1410.02	0.246884
1409.14	0.246563
1408.26	0.246756
1407.37	0.246829
1406.49	0.246744
1405.6	0.24631
1404.72	0.24595
1403.83	0.245911
1402.95	0.246304
1402.06	0.246136
1401.18	0.246976
1400.29	0.247359
1399.4	0.24785
1398.52	0.247911
1397.63	0.247667
1396.75	0.248177
1395.86	0.248705
1394.97	0.24912
1394.08	0.250282
1393.2	0.250608
1392.31	0.251288
1391.42	0.251186
1390.54	0.251266
1389.65	0.251222
1388.76	0.251061
1387.87	0.250961
1386.98	0.250398
1386.1	0.249795
1385.21	0.249505
1384.32	0.248825
1383.43	0.248607
1382.54	0.24803
1381.65	0.247803
1380.76	0.247698
1379.87	0.247114
1378.98	0.246753
1378.09	0.246843
1377.21	0.247151
1376.32	0.247283
1375.43	0.247485
1374.53	0.247955
1373.64	0.248172
1372.75	0.248003
1371.86	0.247555
1370.97	0.24729
1370.08	0.247279
1369.19	0.247017
1368.3	0.247269
1367.41	0.247426
1366.52	0.247425
1365.62	0.247351
1364.73	0.247516
1363.84	0.247593
1362.95	0.248235
1362.05	0.248524
1361.16	0.248807
1360.27	0.248365
1359.38	0.248148
1358.48	0.247859
1357.59	0.247782
1356.7	0.247473
1355.8	0.247799
1354.91	0.247575
1354.02	0.247685
1353.12	0.247595
1352.23	0.24784
1351.33	0.247959
1350.44	0.247775
1349.54	0.247479
1348.65	0.247485
1347.75	0.247142
1346.86	0.246873
1345.96	0.24648
1345.07	0.24617
1344.17	0.245917
1343.28	0.246052
1342.38	0.245685
1341.49	0.245715
1340.59	0.245775
1339.69	0.245426
1338.8	0.245168
1337.9	0.245393
1337	0.245635
1336.11	0.246095
1335.21	0.245423
1334.31	0.245662
1333.41	0.245718
1332.52	0.245556
1331.62	0.245291
1330.72	0.245162
1329.82	0.245061
1328.92	0.244607
1328.03	0.244218
1327.13	0.244498
1326.23	0.244484
1325.33	0.244549
1324.43	0.244522
1323.53	0.244215
1322.63	0.243957
1321.73	0.243185
1320.83	0.243043
1319.93	0.242977
1319.03	0.243055
1318.13	0.243382
1317.23	0.243764
1316.33	0.243959
1315.43	0.243919
1314.53	0.243799
1313.63	0.243571
1312.73	0.243501
1311.83	0.243486
1310.93	0.243306
1310.03	0.243285
1309.12	0.243425
1308.22	0.244098
1307.32	0.244808
1306.42	0.245565
1305.52	0.246643
1304.61	0.247685
1303.71	0.248781
1302.81	0.250555
1301.9	0.251695
1301	0.2527
1300.1	0.253598
1299.19	0.254321
1298.29	0.25498
1297.39	0.255567
1296.48	0.255531
1295.58	0.255503
1294.68	0.254174
1293.77	0.252552
1292.87	0.250642
1291.96	0.248655
1291.06	0.247038
1290.15	0.24602
1289.25	0.244889
1288.34	0.244481
1287.44	0.243966
1286.53	0.243734
1285.62	0.243388
1284.72	0.243175
1283.81	0.243125
1282.91	0.243361
1282	0.243334
1281.09	0.243445
1280.19	0.24359
1279.28	0.244134
1278.37	0.244741
1277.46	0.245425
1276.56	0.246356
1275.65	0.247112
1274.74	0.24796
1273.83	0.248413
1272.93	0.249471
1272.02	0.251083
1271.11	0.252457
1270.2	0.253917
1269.29	0.255967
1268.38	0.257651
1267.47	0.259289
1266.57	0.260444
1265.66	0.261822
1264.75	0.262932
1263.84	0.263391
1262.93	0.263771
1262.02	0.264856
1261.11	0.265214
1260.2	0.265441
1259.29	0.265389
1258.38	0.265307
1257.47	0.265021
1256.55	0.264259
1255.64	0.263414
1254.73	0.262439
1253.82	0.260514
1252.91	0.258908
1252	0.256661
1251.09	0.255032
1250.17	0.253337
1249.26	0.251864
1248.35	0.250846
1247.44	0.250129
1246.52	0.249363
1245.61	0.248697
1244.7	0.248045
1243.78	0.248033
1242.87	0.247822
1241.96	0.248021
1241.04	0.247912
1240.13	0.247767
1239.22	0.247288
1238.3	0.246641
1237.39	0.246286
1236.47	0.246076
1235.56	0.246053
1234.64	0.246114
1233.73	0.245678
1232.81	0.245495
1231.9	0.245221
1230.98	0.245195
1230.07	0.244934
1229.15	0.244935
1228.24	0.245476
1227.32	0.245592
1226.4	0.245855
1225.49	0.245602
1224.57	0.24526
1223.65	0.245296
1222.74	0.244559
1221.82	0.244342
1220.9	0.244565
1219.99	0.244553
1219.07	0.244527
1218.15	0.243879
1217.23	0.244183
1216.31	0.244348
1215.4	0.244492
1214.48	0.244699
1213.56	0.244893
1212.64	0.245098
1211.72	0.244984
1210.8	0.245101
1209.88	0.244953
1208.96	0.244766
1208.05	0.245081
1207.13	0.244989
1206.21	0.245319
1205.29	0.245658
1204.37	0.24626
1203.45	0.246793
1202.53	0.246615
1201.6	0.246792
1200.68	0.246542
1199.76	0.24652
1198.84	0.247205
1197.92	0.247764
1197	0.248478
1196.08	0.24972
1195.16	0.251111
1194.23	0.2533
1193.31	0.255916
1192.39	0.260298
1191.47	0.266187
1190.54	0.273681
1189.62	0.283168
1188.7	0.295129
1187.78	0.308105
1186.85	0.323425
1185.93	0.339041
1185.01	0.354525
1184.08	0.36824
1183.16	0.379527
1182.23	0.386679
1181.31	0.389286
1180.39	0.386616
1179.46	0.379869
1178.54	0.368848
1177.61	0.355447
1176.69	0.340336
1175.76	0.32464
1174.84	0.308757
1173.91	0.294749
1172.98	0.282422
1172.06	0.271951
1171.13	0.26384
1170.21	0.258981
1169.28	0.255463
1168.35	0.253583
1167.43	0.252395
1166.5	0.252399
1165.57	0.251974
1164.65	0.251535
1163.72	0.251271
1162.79	0.251227
1161.86	0.250969
1160.94	0.251181
1160.01	0.251113
1159.08	0.251075
1158.15	0.250737
1157.22	0.250633
1156.29	0.251159
1155.37	0.251194
1154.44	0.25146
1153.51	0.251983
1152.58	0.251961
1151.65	0.25257
1150.72	0.253532
1149.79	0.254607
1148.86	0.255969
1147.93	0.257098
1147	0.258155
1146.07	0.259561
1145.14	0.260229
1144.21	0.261563
1143.28	0.263423
1142.35	0.26525
1141.41	0.267505
1140.48	0.269732
1139.55	0.272038
1138.62	0.274503
1137.69	0.276205
1136.76	0.278355
1135.82	0.280621
1134.89	0.282604
1133.96	0.284733
1133.03	0.2871
1132.09	0.289532
1131.16	0.292061
1130.23	0.29434
1129.29	0.2974
1128.36	0.300106
1127.43	0.303231
1126.49	0.305982
1125.56	0.310003
1124.62	0.314054
1123.69	0.318448
1122.75	0.322807
1121.82	0.328057
1120.89	0.333833
1119.95	0.339106
1119.01	0.3436
1118.08	0.348003
1117.14	0.35165
1116.21	0.354722
1115.27	0.356618
1114.34	0.359555
1113.4	0.36296
1112.46	0.366044
1111.53	0.37017
1110.59	0.375262
1109.65	0.381203
1108.72	0.387899
1107.78	0.394344
1106.84	0.40202
1105.9	0.409415
1104.97	0.4166
1104.03	0.42548
1103.09	0.435231
1102.15	0.446049
1101.21	0.458275
1100.28	0.47071
1099.34	0.483729
1098.4	0.495549
1097.46	0.505925
1096.52	0.514934
1095.58	0.52175
1094.64	0.52586
1093.7	0.528699
1092.76	0.531474
1091.82	0.536775
1090.88	0.547378
1089.94	0.567263
1089	0.679151
1088.06	0.691002
1087.12	0.622744
1086.18	0.498134
1085.24	0.34226
1084.29	0.183775
1083.35	0.0572749
1082.41	0.00328373
1081.47	0.0709844
1080.53	0.0709142
1079.58	0.070844
1078.64	0.0707738
1077.7	0.0707036
1076.76	0.0706334
1075.81	0.0705631
1074.87	0.0704928
1073.93	0.0704226
1072.98	0
1072.04	0.0564198
1071.1	0.188991
1070.15	0.352821
1069.21	0.511164
1068.26	0.632225
1067.32	0.688564
1066.38	0.657673
1065.43	0.51868
1064.49	0.474445
1063.54	0.440836
1062.6	0.414436
1061.65	0.393524
1060.7	0.37697
1059.76	0.362781
1058.81	0.351604
1057.87	0.342168
1056.92	0.333758
1055.97	0.326378
1055.03	0.319148
1054.08	0.312314
1053.13	0.306304
1052.19	0.300352
1051.24	0.295318
1050.29	0.291091
1049.34	0.287068
1048.4	0.283349
1047.45	0.280219
1046.5	0.277484
1045.55	0.274948
1044.6	0.272399
1043.65	0.27066
1042.71	0.26942
1041.76	0.267912
1040.81	0.266008
1039.86	0.264698
1038.91	0.263326
1037.96	0.261986
1037.01	0.260647
1036.06	0.259707
1035.11	0.259003
1034.16	0.258179
1033.21	0.257391
1032.26	0.256736
1031.31	0.256174
1030.36	0.255519
1029.4	0.255063
1028.45	0.254475
1027.5	0.254188
1026.55	0.25393
1025.6	0.253586
1024.65	0.253109
1023.69	0.252728
1022.74	0.252357
1021.79	0.25242
1020.84	0.252624
1019.88	0.253306
1018.93	0.254554
1017.98	0.257458
1017.02	0.261271
1016.07	0.266141
1015.12	0.270895
1014.16	0.274774
1013.21	0.276735
1012.25	0.276278
1011.3	0.273478
1010.34	0.269734
1009.39	0.264667
1008.43	0.260262
1007.48	0.256367
1006.52	0.253376
1005.57	0.251568
1004.61	0.250263
1003.66	0.249739
1002.7	0.24957
1001.74	0.249549
1000.79	0.249895
999.832	0.249782
998.875	0.249762
997.919	0.248845
996.962	0.247369
996.004	0.246876
995.047	0.246574
994.089	0.246485
993.132	0.246334
992.174	0.246654
991.216	0.247135
990.258	0.246208
989.299	0.245372
988.341	0.24565
987.382	0.245364
986.423	0.244788
985.464	0.244309
984.505	0.243949
983.545	0.243912
982.586	0.24376
981.626	0.244079
980.666	0.244315
979.706	0.244227
978.746	0.244222
977.785	0.244124
976.824	0.243498
975.864	0.243961
974.903	0.244547
973.941	0.245098
972.98	0.244941
972.019	0.245428
971.057	0.246103
970.095	0.246447
969.133	0.246209
968.171	0.246568
967.209	0.246902
966.246	0.247268
965.283	0.247411
964.32	0.247987
963.357	0.248359
962.394	0.24849
961.431	0.24781
960.467	0.247416
959.503	0.247465
958.54	0.247374
957.575	0.246958
956.611	0.246929
955.647	0.246708
954.682	0.246834
953.717	0.246589
952.752	0.246801
951.787	0.247269
950.822	0.247453
949.857	0.247138
948.891	0.247381
947.925	0.24756
946.959	0.24784
945.993	0.247749
945.026	0.247597
944.06	0.247472
943.093	0.24738
942.126	0.24738
941.159	0.247167
940.192	0.247093
939.225	0.247015
938.257	0.246831
937.289	0.246496
936.322	0.246156
935.353	0.245976
934.385	0.245573
933.417	0.244885
932.448	0.244127
931.479	0.243882
930.51	0.243954
929.541	0.243565
928.572	0.243297
927.602	0.243588
926.633	0.243307
925.663	0.243423
924.693	0.24325
923.723	0.24342
922.752	0.243743
921.782	0.24345
920.811	0.243494
919.84	0.243784
918.869	0.243382
917.898	0.243618
916.926	0.24359
915.955	0.243505
914.983	0.243618
914.011	0.243621
913.039	0.243434
912.067	0.242965
911.094	0.24254
910.122	0.242306
909.149	0.242669
908.176	0.242689
907.203	0.242925
906.229	0.243009
905.256	0.242446
904.282	0.242154
903.308	0.242112
902.334	0.242001
901.36	0.242566
900.386	0.24238
899.411	0.242574
898.436	0.242247
897.461	0.241994
896.486	0.242149
895.511	0.242006
894.536	0.242437
893.56	0.242666
892.584	0.242826
891.608	0.242606
890.632	0.24285
889.656	0.2433
888.679	0.242989
887.702	0.242618
886.726	0.242849
885.748	0.243039
884.771	0.243067
883.794	0.242949
882.816	0.243293
881.839	0.243348
880.861	0.24313
879.882	0.243143
878.904	0.243372
877.926	0.243737
876.947	0.243854
875.968	0.244306
874.989	0.244239
874.01	0.243909
873.031	0.243948
872.051	0.243877
871.072	0.244043
870.092	0.244552
869.112	0.244382
868.131	0.244536
867.151	0.24421
866.17	0.243753
865.19	0.243833
864.209	0.244169
863.228	0.244659
862.246	0.245671
861.265	0.245439
860.283	0.245604
859.301	0.245714
858.319	0.245232
857.337	0.24516
856.355	0.245355
855.372	0.245467
854.389	0.245417
853.407	0.245005
852.424	0.245261
851.44	0.245561
850.457	0.245276
849.473	0.245502
848.489	0.245539
847.505	0.245784
846.521	0.245937
845.537	0.246457
844.552	0.247408
843.568	0.248638
842.583	0.249455
841.598	0.250197
840.613	0.250363
839.627	0.250675
838.642	0.250949
837.656	0.251108
836.67	0.251627
835.684	0.252855
834.698	0.253802
833.711	0.254723
832.724	0.255477
831.738	0.256445
830.751	0.257084
829.763	0.257456
828.776	0.257539
827.789	0.25792
826.801	0.258331
825.813	0.258556
824.825	0.259027
823.837	0.259366
822.848	0.259392
821.859	0.259186
820.871	0.258362
819.882	0.257636
818.892	0.257234
817.903	0.257113
816.914	0.257048
815.924	0.256918
814.934	0.257033
813.944	0.25664
812.954	0.255582
811.963	0.25433
810.973	0.253664
809.982	0.252963
808.991	0.252346
808	0.251842
807.008	0.251545
806.017	0.250846
805.025	0.249715
804.033	0.248964
803.041	0.248544
802.049	0.248125
801.057	0.247891
800.064	0.247707
799.071	0.247689
798.078	0.247402
797.085	0.247051
796.092	0.247336
795.099	0.247189
794.105	0.24732
793.111	0.247546
792.117	0.247651
791.123	0.247707
790.128	0.247374
789.134	0.247696
788.139	0.248153
787.144	0.247933
786.149	0.248232
785.154	0.248389
784.158	0.248029
783.162	0.247601
782.167	0.247756
781.171	0.248262
780.174	0.248464
779.178	0.248342
778.181	0.248768
777.185	0.248854
776.188	0.248832
775.191	0.248825
774.193	0.249367
773.196	0.249678
772.198	0.249738
771.2	0.249991
770.202	0.250301
769.204	0.250288
768.206	0.250581
767.207	0.250718
766.208	0.250909
765.209	0.250642
764.21	0.250611
763.211	0.251199
762.212	0.2517
761.212	0.252485
760.212	0.254134
759.212	0.25554
758.212	0.257328
757.211	0.25936
756.211	0.262535
755.21	0.268
754.209	0.276415
753.208	0.28943
752.207	0.307787
751.205	0.331289
750.203	0.359779
749.202	0.393284
748.2	0.429063
747.197	0.467309
746.195	0.505996
745.192	0.540675
744.19	0.568852
743.187	0.585048
742.183	0.586187
741.18	0.572113
740.177	0.543614
739.173	0.505145
738.169	0.461603
737.165	0.416706
736.161	0.376295
735.156	0.341224
734.152	0.313074
733.147	0.292327
732.142	0.278111
731.137	0.268588
730.131	0.2623
729.126	0.258954
728.12	0.256762
727.114	0.255023
726.108	0.253462
725.102	0.252081
724.095	0.251407
723.089	0.251297
722.082	0.251518
721.075	0.25315
720.068	0.25441
719.06	0.256463
718.053	0.258399
717.045	0.260175
716.037	0.262862
715.029	0.265479
714.021	0.268075
713.012	0.270279
712.004	0.27184
710.995	0.272997
709.986	0.273325
708.977	0.273162
707.967	0.27292
706.958	0.272586
705.948	0.271442
704.938	0.269478
703.928	0.267096
702.917	0.264334
701.907	0.261941
700.896	0.259466
699.885	0.257799
698.874	0.256384
697.863	0.255196
696.851	0.254321
695.84	0.252925
694.828	0.25179
693.816	0.251152
692.804	0.249921
691.791	0.249179
690.779	0.24827
689.766	0.247773
688.753	0.247327
687.74	0.246627
686.727	0.24611
685.713	0.246658
684.7	0.246796
683.686	0.246889
682.672	0.246999
681.658	0.246648
680.643	0.246474
679.629	0.246118
678.614	0.245826
677.599	0.246008
676.584	0.246711
675.568	0.246847
674.553	0.246664
673.537	0.246576
672.521	0.246419
671.505	0.24607
670.489	0.245666
669.472	0.245293
668.456	0.245644
667.439	0.245662
666.422	0.245168
665.405	0.245607
664.387	0.24559
663.37	0.245163
662.352	0.245127
661.334	0.244993
660.316	0.245114
659.297	0.24524
658.279	0.245277
657.26	0.24554
656.241	0.24533
655.222	0.24502
654.203	0.24516
653.183	0.244554
652.164	0.244554
651.144	0.244909
650.124	0.245046
649.104	0.245316
648.083	0.245682
647.063	0.246326
646.042	0.246581
645.021	0.246706
644	0.246904
642.978	0.247485
641.957	0.24714
640.935	0.247188
639.913	0.247359
638.891	0.248987
637.869	0.25345
636.846	0.264076
635.824	0.283441
634.801	0.313534
633.778	0.350368
632.755	0.386727
631.731	0.41208
630.708	0.419265
629.684	0.405444
628.66	0.375632
627.636	0.339423
626.611	0.305969
625.587	0.281108
624.562	0.266105
623.537	0.258232
622.512	0.254781
621.487	0.252297
620.461	0.250935
619.436	0.249925
618.41	0.249185
617.384	0.24848
616.357	0.248209
615.331	0.248371
614.304	0.248392
613.277	0.247933
612.25	0.247926
611.223	0.247382
610.196	0.247085
609.168	0.24706
608.141	0.247669
607.113	0.247881
606.084	0.24807
605.056	0.248065
604.028	0.247976
602.999	0.247435
601.97	0.246924
600.941	0.246681
599.912	0.247235
598.882	0.246987
597.852	0.246802
596.823	0.24702
595.793	0.24728
594.762	0.247206
593.732	0.247434
592.701	0.247386
591.671	0.24718
590.64	0.246512
589.608	0.246158
588.577	0.246442
587.545	0.246409
586.514	0.246573
585.482	0.246695
584.45	0.246156
583.417	0.245486
582.385	0.245423
581.352	0.245985
580.319	0.246383
579.286	0.246842
578.253	0.247238
577.219	0.247829
576.186	0.248428
575.152	0.249841
574.118	0.251323
573.083	0.253289
572.049	0.255651
571.014	0.258137
569.98	0.260072
568.945	0.262294
567.909	0.264159
566.874	0.265601
565.838	0.266506
564.803	0.26775
563.767	0.268771
562.73	0.269817
561.694	0.270254
560.658	0.270101
559.621	0.270324
558.584	0.270318
557.547	0.270442
556.509	0.270457
555.472	0.270577
554.434	0.271125
553.396	0.271366
552.358	0.27131
551.32	0.27186
550.282	0.272066
549.243	0.271555
548.204	0.270825
547.165	0.269983
546.126	0.268859
545.086	0.267201
544.047	0.265408
543.007	0.263723
541.967	0.261645
540.927	0.259418
539.886	0.25838
538.846	0.257606
537.805	0.257228
536.764	0.256652
535.723	0.256395
534.681	0.256202
533.64	0.256212
532.598	0.256131
531.556	0.256328
530.514	0.256742
529.472	0.257446
528.429	0.257491
527.387	0.257846
526.344	0.257702
525.301	0.257945
524.257	0.257448
523.214	0.257546
522.17	0.257711
521.126	0.258125
520.082	0.258134
519.038	0.25835
517.993	0.258158
516.949	0.257724
515.904	0.257448
514.859	0.257633
513.814	0.256756
512.768	0.255457
511.723	0.254728
510.677	0.254267
509.631	0.254195
508.585	0.253908
507.538	0.254158
506.492	0.2539
505.445	0.252803
504.398	0.251527
503.351	0.251235
502.303	0.251236
501.256	0.251476
500.208	0.251655
499.16	0.251743
498.112	0.251661
497.063	0.251458
496.015	0.25092
494.966	0.251126
493.917	0.250604
492.868	0.250332
491.819	0.250252
490.769	0.250403
489.72	0.250346
488.67	0.250308
487.62	0.249781
486.569	0.249883
485.519	0.249066
484.468	0.248567
483.417	0.248156
482.366	0.247911
481.315	0.247043
480.263	0.246603
479.212	0.246127
478.16	0.245868
477.108	0.245615
476.055	0.245264
475.003	0.245238
473.95	0.245059
472.897	0.244533
471.844	0.244246
470.791	0.244279
469.738	0.244457
468.684	0.24464
467.63	0.244708
466.576	0.245218
465.522	0.245708
464.468	0.246054
463.413	0.246224
462.358	0.247261
461.303	0.248395
460.248	0.249129
459.193	0.249634
458.137	0.250684
457.081	0.251767
456.025	0.252542
454.969	0.253385
453.913	0.255581
452.856	0.257583
451.799	0.259282
450.742	0.261082
449.685	0.262701
448.628	0.264124
447.57	0.26531
446.512	0.265724
445.454	0.267502
444.396	0.268158
443.338	0.269016
442.279	0.269873
441.221	0.269693
440.162	0.269723
439.102	0.269677
438.043	0.269159
436.983	0.269609
435.924	0.269579
434.864	0.270157
433.804	0.270161
432.743	0.269525
431.683	0.269062
430.622	0.268693
429.561	0.268424
428.5	0.268606
427.439	0.268947
426.377	0.269568
425.315	0.269272
424.253	0.26902
423.191	0.268952
422.129	0.268932
421.066	0.269235
420.004	0.269973
418.941	0.270448
417.878	0.271581
416.814	0.27206
415.751	0.273179
414.687	0.275406
413.623	0.277719
412.559	0.280306
411.495	0.282935
410.43	0.284939
409.365	0.287007
408.301	0.287738
407.235	0.287896
406.17	0.288309
405.105	0.287678
404.039	0.286845
402.973	0.285542
401.907	0.283792
400.84	0.281203
399.774	0.278248
398.707	0.274797
397.64	0.271828
396.573	0.268879
395.506	0.266891
394.438	0.265289
393.371	0.26364
392.303	0.261462
391.235	0.260268
390.166	0.259092
389.098	0.257768
388.029	0.256509
386.96	0.255921
385.891	0.25519
384.822	0.254587
383.752	0.25394
382.682	0.253806
381.613	0.253722
380.542	0.253492
379.472	0.253725
378.402	0.253987
377.331	0.253102
376.26	0.252886
375.189	0.252277
374.117	0.251621
373.046	0.251218
371.974	0.250834
370.902	0.25095
369.83	0.251337
368.758	0.250634
367.685	0.250711
366.613	0.250453
365.54	0.250112
364.466	0.249768
363.393	0.249053
362.32	0.248453
361.246	0.248419
360.172	0.247968
359.098	0.248124
358.023	0.247653
356.949	0.24781
355.874	0.247927
354.799	0.248216
353.724	0.248679
352.649	0.249225
351.573	0.249531
350.497	0.250096
349.421	0.250556
348.345	0.251624
347.269	0.252641
346.192	0.253878
345.115	0.254997
344.038	0.256216
342.961	0.256934
341.884	0.257816
340.806	0.258752
339.728	0.259673
338.65	0.260441
337.572	0.261443
336.494	0.262963
335.415	0.265304
334.336	0.266907
333.257	0.268621
332.178	0.27022
331.099	0.271747
330.019	0.272726
328.939	0.273531
327.859	0.275152
326.779	0.277357
325.699	0.279278
324.618	0.281753
323.537	0.283891
322.456	0.28608
321.375	0.287609
320.293	0.288582
319.212	0.289933
318.13	0.291232
317.048	0.292893
315.966	0.294941
314.883	0.296119
313.8	0.297435
312.718	0.297746
311.634	0.297714
310.551	0.297121
309.468	0.295625
308.384	0.294889
307.3	0.294017
306.216	0.292937
305.132	0.292353
304.047	0.291345
302.962	0.290798
301.877	0.290187
300.792	0.289275
299.707	0.289046
298.621	0.28896
297.536	0.288542
296.45	0.287876
295.364	0.28634
294.277	0.285112
293.191	0.284262
292.104	0.283315
291.017	0.283144
289.93	0.284141
288.842	0.284853
287.755	0.285894
286.667	0.286684
285.579	0.287925
284.491	0.289258
283.402	0.289686
282.314	0.290659
281.225	0.291468
280.136	0.291978
279.047	0.292622
277.957	0.29327
276.867	0.294063
275.778	0.294607
274.688	0.295205
273.597	0.29603
272.507	0.296647
271.416	0.297529
270.325	0.298379
269.234	0.299506
268.143	0.299962
267.051	0.300708
265.96	0.301291
264.868	0.301276
263.776	0.301222
262.683	0.301159
261.591	0.301143
260.498	0.300873
259.405	0.300379
258.312	0.300221
257.218	0.300014
256.125	0.299434
255.031	0.298677
253.937	0.297493
252.843	0.296058
251.748	0.293462
250.654	0.291958
249.559	0.289781
248.464	0.287259
247.369	0.284659
246.273	0.281647
245.178	0.277536
244.082	0.273875
242.986	0.269868
241.889	0.267517
240.793	0.265374
239.696	0.263412
238.599	0.262207
237.502	0.261178
236.405	0.259694
235.307	0.258864
234.21	0.257907
233.112	0.257507
232.014	0.257454
230.915	0.257166
229.817	0.257284
228.718	0.257633
227.619	0.258333
226.52	0.25905
225.42	0.259551
224.321	0.260466
223.221	0.261427
222.121	0.261923
221.021	0.263235
219.92	0.263709
218.82	0.26491
217.719	0.265715
216.618	0.266858
215.516	0.267909
214.415	0.269347
213.313	0.270676
212.211	0.272097
211.109	0.273244
210.007	0.274476
208.904	0.275498
207.802	0.277037
206.699	0.277956
205.595	0.278628
204.492	0.279772
203.389	0.280721
202.285	0.282061
201.181	0.283009
200.077	0.284511
198.972	0.286036
197.867	0.287416
196.763	0.28812
195.658	0.289656
194.552	0.29042
193.447	0.291294
192.341	0.292395
191.235	0.293759
190.129	0.29511
189.023	0.296723
187.916	0.298542
186.81	0.301016
185.703	0.303296
184.595	0.305773
183.488	0.308939
182.381	0.311868
181.273	0.314877
180.165	0.318332
179.057	0.322066
177.948	0.326206
176.839	0.330777
175.731	0.335206
174.622	0.340054
173.512	0.34431
172.403	0.348109
171.293	0.351939
170.183	0.353982
169.073	0.355209
167.963	0.35533
166.852	0.354767
165.742	0.352791
164.631	0.350501
163.519	0.34794
162.408	0.346007
161.296	0.343454
160.185	0.341915
159.073	0.340854
157.96	0.341144
156.848	0.341875
155.735	0.344054
154.622	0.347138
153.509	0.350353
152.396	0.354246
151.282	0.358566
150.169	0.363509
149.055	0.368003
147.941	0.37306
146.826	0.378295
145.712	0.384051
144.597	0.389422
143.482	0.3953
142.367	0.401394
141.251	0.408332
140.136	0.414348
139.02	0.421913
137.904	0.429077
136.788	0.436201
135.671	0.443549
134.554	0.450775
133.437	0.45753
132.32	0.464349
131.203	0.471634
130.085	0.480485
128.968	0.489187
127.85	0.497824
126.732	0.507231
125.613	0.517051
124.494	0.526156
123.376	0.536029
122.257	0.54689
121.137	0.559184
120.018	0.572276
118.898	0.585452
117.778	0.599309
116.658	0.613021
115.538	0.626528
114.417	0.639478
113.296	0.651206
112.176	0.661588
111.054	0.670047
109.933	0.676025
108.811	0.679716
107.689	0.681069
106.567	0.681548
105.445	0.679321
104.323	0.675908
103.2	0.671996
102.077	0.668808
100.954	0.666533
