3801.25	0.255716
3800.75	0.255709
3800.24	0.255665
3799.74	0.255647
3799.23	0.255626
3798.73	0.255595
3798.22	0.255528
3797.72	0.255502
3797.21	0.255457
3796.71	0.25543
3796.2	0.255369
3795.69	0.255326
3795.19	0.255318
3794.68	0.25533
3794.18	0.255301
3793.67	0.255253
3793.16	0.255194
3792.66	0.255178
3792.15	0.255124
3791.65	0.255056
3791.14	0.255029
3790.63	0.255046
3790.13	0.255009
3789.62	0.25495
3789.11	0.254897
3788.61	0.25485
3788.1	0.254793
3787.59	0.254759
3787.09	0.254744
3786.58	0.254737
3786.07	0.254705
3785.56	0.254661
3785.06	0.254611
3784.55	0.254567
3784.04	0.254547
3783.53	0.254534
3783.03	0.254539
3782.52	0.254531
3782.01	0.254497
3781.5	0.254442
3780.99	0.254373
3780.49	0.254316
3779.98	0.254267
3779.47	0.254202
3778.96	0.254195
3778.45	0.254193
3777.95	0.254182
3777.44	0.254146
3776.93	0.254111
3776.42	0.25409
3775.91	0.25405
3775.4	0.253979
3774.89	0.253938
3774.39	0.253913
3773.88	0.253903
3773.37	0.2539
3772.86	0.253901
3772.35	0.253887
3771.84	0.253831
3771.33	0.253764
3770.82	0.253702
3770.31	0.253689
3769.8	0.253653
3769.29	0.253626
3768.78	0.253602
3768.27	0.253553
3767.76	0.253499
3767.25	0.253462
3766.74	0.253427
3766.23	0.253413
3765.72	0.25336
3765.21	0.253332
3764.7	0.253273
3764.19	0.253248
3763.68	0.253209
3763.17	0.253189
3762.66	0.253179
3762.15	0.253174
3761.64	0.253123
3761.13	0.25312
3760.62	0.253035
3760.11	0.253042
3759.6	0.252976
3759.08	0.252956
3758.57	0.252934
3758.06	0.252915
3757.55	0.252832
3757.04	0.25281
3756.53	0.252744
3756.02	0.252726
3755.5	0.252654
3754.99	0.252679
3754.48	0.252652
3753.97	0.252635
3753.46	0.252563
3752.95	0.252529
3752.43	0.252483
3751.92	0.252427
3751.41	0.252357
3750.9	0.252364
3750.38	0.252301
3749.87	0.252246
3749.36	0.252199
3748.85	0.252231
3748.33	0.252242
3747.82	0.252211
3747.31	0.252162
3746.8	0.252127
3746.28	0.252063
3745.77	0.251992
3745.26	0.251983
3744.74	0.251992
3744.23	0.25195
3743.72	0.251927
3743.2	0.251915
3742.69	0.251871
3742.18	0.251843
3741.66	0.251805
3741.15	0.251781
3740.64	0.251713
3740.12	0.25169
3739.61	0.251684
3739.09	0.251683
3738.58	0.251608
3738.07	0.251526
3737.55	0.251469
3737.04	0.251442
3736.52	0.251444
3736.01	0.251451
3735.49	0.251457
3734.98	0.251457
3734.46	0.251366
3733.95	0.251272
3733.43	0.251202
3732.92	0.251164
3732.4	0.251138
3731.89	0.251106
3731.37	0.251142
3730.86	0.251137
3730.34	0.251094
3729.83	0.251055
3729.31	0.251007
3728.8	0.250963
3728.28	0.250893
3727.77	0.250839
3727.25	0.25079
3726.74	0.25073
3726.22	0.250696
3725.7	0.250694
3725.19	0.250701
3724.67	0.250695
3724.16	0.250679
3723.64	0.25063
3723.12	0.250581
3722.61	0.250567
3722.09	0.250532
3721.57	0.250513
3721.06	0.250453
3720.54	0.250405
3720.02	0.250337
3719.51	0.250274
3718.99	0.250257
3718.47	0.250273
3717.96	0.250257
3717.44	0.250274
3716.92	0.250239
3716.4	0.250198
3715.89	0.2501
3715.37	0.250048
3714.85	0.250012
3714.33	0.250006
3713.82	0.249993
3713.3	0.249974
3712.78	0.249921
3712.26	0.24984
3711.75	0.24976
3711.23	0.249709
3710.71	0.249689
3710.19	0.249671
3709.67	0.24968
3709.15	0.249664
3708.64	0.249635
3708.12	0.249574
3707.6	0.249553
3707.08	0.249534
3706.56	0.249536
3706.04	0.249474
3705.52	0.249449
3705	0.249396
3704.49	0.249328
3703.97	0.249248
3703.45	0.24923
3702.93	0.249216
3702.41	0.249213
3701.89	0.24919
3701.37	0.249183
3700.85	0.24916
3700.33	0.249137
3699.81	0.249056
3699.29	0.248992
3698.77	0.248941
3698.25	0.248923
3697.73	0.248871
3697.21	0.24887
3696.69	0.248853
3696.17	0.248842
3695.65	0.248797
3695.13	0.248748
3694.61	0.248709
3694.09	0.248662
3693.57	0.248574
3693.05	0.248535
3692.53	0.248477
3692.01	0.248445
3691.49	0.248412
3690.96	0.248408
3690.44	0.248352
3689.92	0.248343
3689.4	0.248334
3688.88	0.248321
3688.36	0.248302
3687.84	0.248278
3687.32	0.248224
3686.79	0.248211
3686.27	0.248142
3685.75	0.248151
3685.23	0.248118
3684.71	0.248089
3684.19	0.248032
3683.66	0.248004
3683.14	0.247947
3682.62	0.247901
3682.1	0.247861
3681.57	0.247817
3681.05	0.247779
3680.53	0.247746
3680.01	0.247719
3679.48	0.247703
3678.96	0.247674
3678.44	0.247661
3677.92	0.247626
3677.39	0.247592
3676.87	0.247581
3676.35	0.247534
3675.82	0.247456
3675.3	0.247368
3674.78	0.247329
3674.25	0.247306
3673.73	0.247291
3673.21	0.247301
3672.68	0.2473
3672.16	0.247262
3671.64	0.247159
3671.11	0.247084
3670.59	0.247008
3670.06	0.246977
3669.54	0.246984
3669.02	0.246999
3668.49	0.247038
3667.97	0.247017
3667.44	0.246967
3666.92	0.246929
3666.39	0.24687
3665.87	0.246832
3665.34	0.246784
3664.82	0.246786
3664.29	0.246776
3663.77	0.246716
3663.24	0.246661
3662.72	0.246647
3662.19	0.246641
3661.67	0.246613
3661.14	0.246543
3660.62	0.246542
3660.09	0.246494
3659.57	0.246421
3659.04	0.246351
3658.52	0.246316
3657.99	0.246279
3657.46	0.246261
3656.94	0.246236
3656.41	0.246251
3655.89	0.246242
3655.36	0.246199
3654.83	0.246166
3654.31	0.246111
3653.78	0.246046
3653.25	0.245987
3652.73	0.245972
3652.2	0.245961
3651.67	0.245962
3651.15	0.245923
3650.62	0.245885
3650.09	0.245846
3649.57	0.245794
3649.04	0.245724
3648.51	0.245719
3647.99	0.245739
3647.46	0.24573
3646.93	0.245684
3646.4	0.24562
3645.88	0.245591
3645.35	0.245532
3644.82	0.24548
3644.29	0.245449
3643.76	0.245466
3643.24	0.245402
3642.71	0.245339
3642.18	0.245257
3641.65	0.245229
3641.12	0.245172
3640.6	0.24514
3640.07	0.245088
3639.54	0.245089
3639.01	0.245063
3638.48	0.245046
3637.95	0.244982
3637.42	0.244926
3636.9	0.244873
3636.37	0.244839
3635.84	0.244782
3635.31	0.244794
3634.78	0.244819
3634.25	0.244827
3633.72	0.244789
3633.19	0.244754
3632.66	0.244734
3632.13	0.244701
3631.6	0.24463
3631.07	0.244603
3630.54	0.244571
3630.01	0.244503
3629.48	0.244444
3628.95	0.244411
3628.42	0.244392
3627.89	0.244363
3627.36	0.244285
3626.83	0.244241
3626.3	0.244225
3625.77	0.244167
3625.24	0.244137
3624.71	0.244093
3624.18	0.24411
3623.65	0.244128
3623.12	0.244087
3622.59	0.244064
3622.06	0.244041
3621.52	0.243969
3620.99	0.243894
3620.46	0.243807
3619.93	0.243764
3619.4	0.243707
3618.87	0.243656
3618.34	0.243648
3617.8	0.243652
3617.27	0.243607
3616.74	0.243602
3616.21	0.243561
3615.68	0.243537
3615.15	0.243491
3614.61	0.243469
3614.08	0.243464
3613.55	0.243469
3613.02	0.243414
3612.48	0.243369
3611.95	0.243316
3611.42	0.243283
3610.89	0.24325
3610.35	0.243231
3609.82	0.243192
3609.29	0.243188
3608.75	0.243138
3608.22	0.243111
3607.69	0.243086
3607.16	0.243048
3606.62	0.243032
3606.09	0.243005
3605.56	0.242948
3605.02	0.242919
3604.49	0.242879
3603.95	0.242853
3603.42	0.242821
3602.89	0.242778
3602.35	0.242729
3601.82	0.242706
3601.29	0.242645
3600.75	0.242606
3600.22	0.242565
3599.68	0.242514
3599.15	0.242504
3598.61	0.242451
3598.08	0.242395
3597.54	0.242349
3597.01	0.24227
3596.47	0.242256
3595.94	0.242238
3595.41	0.24225
3594.87	0.242257
3594.34	0.242246
3593.8	0.242179
3593.26	0.242119
3592.73	0.24206
3592.19	0.242014
3591.66	0.241975
3591.12	0.241939
3590.59	0.241925
3590.05	0.241922
3589.52	0.241866
3588.98	0.241841
3588.44	0.241796
3587.91	0.241756
3587.37	0.241734
3586.84	0.241687
3586.3	0.241686
3585.76	0.241675
3585.23	0.241644
3584.69	0.241595
3584.15	0.241534
3583.62	0.241492
3583.08	0.241442
3582.54	0.241362
3582.01	0.241355
3581.47	0.241342
3580.93	0.241357
3580.4	0.241336
3579.86	0.241318
3579.32	0.24128
3578.78	0.241244
3578.25	0.24118
3577.71	0.24117
3577.17	0.24112
3576.63	0.241076
3576.1	0.24103
3575.56	0.240976
3575.02	0.240906
3574.48	0.240877
3573.94	0.240829
3573.41	0.240828
3572.87	0.24082
3572.33	0.240792
3571.79	0.240772
3571.25	0.240723
3570.71	0.24068
3570.17	0.2407
3569.64	0.24068
3569.1	0.240663
3568.56	0.240636
3568.02	0.240589
3567.48	0.240534
3566.94	0.24046
3566.4	0.240418
3565.86	0.240399
3565.32	0.24033
3564.78	0.240293
3564.24	0.240243
3563.71	0.240238
3563.17	0.240164
3562.63	0.24014
3562.09	0.240131
3561.55	0.24012
3561.01	0.24009
3560.47	0.240077
3559.93	0.24005
3559.39	0.240012
3558.85	0.239934
3558.3	0.239919
3557.76	0.239897
3557.22	0.239874
3556.68	0.239817
3556.14	0.239782
3555.6	0.239751
3555.06	0.239668
3554.52	0.239611
3553.98	0.239558
3553.44	0.239542
3552.9	0.239522
3552.36	0.239479
3551.81	0.239475
3551.27	0.23947
3550.73	0.239382
3550.19	0.239287
3549.65	0.239241
3549.11	0.239232
3548.56	0.239204
3548.02	0.239148
3547.48	0.239124
3546.94	0.23911
3546.4	0.239059
3545.85	0.238999
3545.31	0.238983
3544.77	0.238941
3544.23	0.23893
3543.68	0.238892
3543.14	0.238855
3542.6	0.23882
3542.06	0.238789
3541.51	0.238743
3540.97	0.238746
3540.43	0.23874
3539.88	0.238794
3539.34	0.238804
3538.8	0.23876
3538.26	0.238708
3537.71	0.238625
3537.17	0.238539
3536.62	0.238473
3536.08	0.238392
3535.54	0.238367
3534.99	0.238339
3534.45	0.238257
3533.91	0.238247
3533.36	0.238215
3532.82	0.238154
3532.27	0.238096
3531.73	0.238033
3531.18	0.238063
3530.64	0.238064
3530.1	0.238054
3529.55	0.238067
3529.01	0.238021
3528.46	0.237983
3527.92	0.237929
3527.37	0.23791
3526.83	0.237879
3526.28	0.237867
3525.74	0.237849
3525.19	0.237804
3524.65	0.237746
3524.1	0.237666
3523.56	0.237577
3523.01	0.237544
3522.46	0.237502
3521.92	0.237499
3521.37	0.237458
3520.83	0.237457
3520.28	0.237462
3519.73	0.237409
3519.19	0.237361
3518.64	0.23733
3518.1	0.237303
3517.55	0.237227
3517	0.237183
3516.46	0.237154
3515.91	0.237133
3515.36	0.237073
3514.82	0.237021
3514.27	0.236976
3513.72	0.236956
3513.18	0.236905
3512.63	0.236853
3512.08	0.236842
3511.53	0.236846
3510.99	0.236818
3510.44	0.236797
3509.89	0.236772
3509.34	0.236736
3508.8	0.23668
3508.25	0.236587
3507.7	0.236586
3507.15	0.236564
3506.61	0.236538
3506.06	0.236502
3505.51	0.236465
3504.96	0.236454
3504.41	0.236445
3503.86	0.23642
3503.32	0.236381
3502.77	0.236308
3502.22	0.236228
3501.67	0.236173
3501.12	0.236115
3500.57	0.236121
3500.02	0.236113
3499.47	0.236084
3498.93	0.236049
3498.38	0.236013
3497.83	0.235968
3497.28	0.235954
3496.73	0.235922
3496.18	0.235898
3495.63	0.235859
3495.08	0.235805
3494.53	0.235742
3493.98	0.235684
3493.43	0.235654
3492.88	0.23562
3492.33	0.235642
3491.78	0.235628
3491.23	0.235605
3490.68	0.235577
3490.13	0.2355
3489.58	0.235381
3489.03	0.235309
3488.48	0.23522
3487.93	0.235238
3487.37	0.23527
3486.82	0.235301
3486.27	0.235324
3485.72	0.235285
3485.17	0.235199
3484.62	0.235123
3484.07	0.235034
3483.52	0.234947
3482.97	0.234947
3482.41	0.23494
3481.86	0.234939
3481.31	0.234939
3480.76	0.234955
3480.21	0.234935
3479.65	0.234895
3479.1	0.234821
3478.55	0.234828
3478	0.234741
3477.45	0.234658
3476.89	0.234595
3476.34	0.234514
3475.79	0.23448
3475.24	0.234421
3474.68	0.234423
3474.13	0.234421
3473.58	0.23439
3473.02	0.234376
3472.47	0.234359
3471.92	0.234327
3471.37	0.234302
3470.81	0.234261
3470.26	0.234231
3469.71	0.234167
3469.15	0.234162
3468.6	0.234111
3468.04	0.23404
3467.49	0.23399
3466.94	0.23391
3466.38	0.233895
3465.83	0.233852
3465.28	0.233835
3464.72	0.23384
3464.17	0.233813
3463.61	0.233795
3463.06	0.233786
3462.5	0.233757
3461.95	0.233752
3461.39	0.233701
3460.84	0.23367
3460.28	0.233628
3459.73	0.233572
3459.17	0.233536
3458.62	0.233472
3458.06	0.233431
3457.51	0.233401
3456.95	0.233385
3456.4	0.233328
3455.84	0.233266
3455.29	0.233195
3454.73	0.233174
3454.18	0.233168
3453.62	0.233122
3453.06	0.233095
3452.51	0.233059
3451.95	0.232985
3451.4	0.232909
3450.84	0.232874
3450.28	0.232867
3449.73	0.232855
3449.17	0.232816
3448.61	0.232805
3448.06	0.232782
3447.5	0.232783
3446.94	0.232735
3446.39	0.232711
3445.83	0.232685
3445.27	0.2326
3444.72	0.232569
3444.16	0.232533
3443.6	0.232522
3443.04	0.232497
3442.49	0.232448
3441.93	0.232411
3441.37	0.232397
3440.81	0.232345
3440.26	0.232306
3439.7	0.232248
3439.14	0.23217
3438.58	0.232113
3438.02	0.232125
3437.47	0.232093
3436.91	0.232102
3436.35	0.232107
3435.79	0.232043
3435.23	0.231978
3434.67	0.23187
3434.11	0.231804
3433.56	0.231812
3433	0.231747
3432.44	0.231741
3431.88	0.231753
3431.32	0.231723
3430.76	0.231683
3430.2	0.231607
3429.64	0.231517
3429.08	0.231485
3428.52	0.231427
3427.96	0.231388
3427.4	0.231414
3426.84	0.23142
3426.28	0.231419
3425.72	0.231415
3425.16	0.231377
3424.6	0.231357
3424.04	0.231327
3423.48	0.231237
3422.92	0.231223
3422.36	0.231175
3421.8	0.23115
3421.24	0.231111
3420.68	0.231074
3420.12	0.231053
3419.56	0.231003
3419	0.230968
3418.44	0.230905
3417.88	0.23086
3417.32	0.230809
3416.75	0.230791
3416.19	0.230774
3415.63	0.230768
3415.07	0.230732
3414.51	0.23071
3413.95	0.230615
3413.38	0.230558
3412.82	0.230484
3412.26	0.230463
3411.7	0.230433
3411.14	0.230455
3410.57	0.230435
3410.01	0.230399
3409.45	0.23036
3408.89	0.230286
3408.32	0.230248
3407.76	0.230242
3407.2	0.230239
3406.64	0.230234
3406.07	0.230194
3405.51	0.230152
3404.95	0.230101
3404.38	0.23002
3403.82	0.230018
3403.26	0.230001
3402.69	0.23001
3402.13	0.22998
3401.57	0.229941
3401	0.2299
3400.44	0.229834
3399.88	0.229746
3399.31	0.229723
3398.75	0.229623
3398.18	0.22962
3397.62	0.229558
3397.06	0.229516
3396.49	0.229484
3395.93	0.229429
3395.36	0.229375
3394.8	0.229321
3394.23	0.229328
3393.67	0.229338
3393.1	0.229298
3392.54	0.229282
3391.97	0.229276
3391.41	0.229234
3390.84	0.229145
3390.28	0.229068
3389.71	0.229118
3389.15	0.229085
3388.58	0.22902
3388.02	0.228976
3387.45	0.228956
3386.89	0.228907
3386.32	0.228865
3385.75	0.228805
3385.19	0.228818
3384.62	0.228778
3384.06	0.228699
3383.49	0.228636
3382.92	0.22863
3382.36	0.228618
3381.79	0.228625
3381.22	0.228592
3380.66	0.228569
3380.09	0.228508
3379.52	0.22845
3378.96	0.228389
3378.39	0.228382
3377.82	0.228328
3377.26	0.228289
3376.69	0.228293
3376.12	0.228262
3375.55	0.228243
3374.99	0.228175
3374.42	0.228108
3373.85	0.228024
3373.28	0.227971
3372.72	0.227929
3372.15	0.227959
3371.58	0.227972
3371.01	0.227974
3370.44	0.227929
3369.88	0.227914
3369.31	0.227841
3368.74	0.227855
3368.17	0.227765
3367.6	0.227721
3367.03	0.227644
3366.46	0.2276
3365.9	0.227579
3365.33	0.227539
3364.76	0.227507
3364.19	0.227507
3363.62	0.227407
3363.05	0.227378
3362.48	0.227382
3361.91	0.227411
3361.34	0.227435
3360.77	0.227417
3360.2	0.22736
3359.63	0.227262
3359.06	0.227127
3358.49	0.227085
3357.92	0.227103
3357.35	0.227066
3356.78	0.227041
3356.21	0.227046
3355.64	0.226953
3355.07	0.226849
3354.5	0.22681
3353.93	0.226807
3353.36	0.226826
3352.79	0.22682
3352.22	0.226788
3351.65	0.226771
3351.08	0.226685
3350.5	0.226621
3349.93	0.226611
3349.36	0.226546
3348.79	0.226532
3348.22	0.226511
3347.65	0.226458
3347.08	0.22641
3346.5	0.226419
3345.93	0.226412
3345.36	0.22639
3344.79	0.226389
3344.22	0.226362
3343.64	0.226308
3343.07	0.226206
3342.5	0.226099
3341.93	0.226076
3341.35	0.226012
3340.78	0.225938
3340.21	0.225918
3339.64	0.225887
3339.06	0.225894
3338.49	0.225836
3337.92	0.225795
3337.34	0.225787
3336.77	0.225771
3336.2	0.225715
3335.62	0.225678
3335.05	0.225687
3334.48	0.225698
3333.9	0.225683
3333.33	0.22566
3332.76	0.225629
3332.18	0.225548
3331.61	0.225499
3331.03	0.22541
3330.46	0.22531
3329.89	0.225276
3329.31	0.225258
3328.74	0.225262
3328.16	0.225257
3327.59	0.22519
3327.01	0.225141
3326.44	0.225092
3325.86	0.225034
3325.29	0.225045
3324.71	0.225041
3324.14	0.225004
3323.56	0.224958
3322.99	0.224912
3322.41	0.224834
3321.84	0.224841
3321.26	0.224828
3320.69	0.224835
3320.11	0.224785
3319.54	0.224708
3318.96	0.224665
3318.38	0.224619
3317.81	0.224565
3317.23	0.224558
3316.65	0.224562
3316.08	0.224545
3315.5	0.224434
3314.93	0.224377
3314.35	0.224296
3313.77	0.224209
3313.2	0.224172
3312.62	0.224156
3312.04	0.224184
3311.47	0.224174
3310.89	0.224149
3310.31	0.224165
3309.73	0.224131
3309.16	0.22409
3308.58	0.224058
3308	0.224035
3307.42	0.223986
3306.85	0.223913
3306.27	0.223872
3305.69	0.223829
3305.11	0.223793
3304.53	0.223748
3303.96	0.223702
3303.38	0.223691
3302.8	0.22368
3302.22	0.223648
3301.64	0.223636
3301.06	0.223579
3300.49	0.223512
3299.91	0.223447
3299.33	0.223353
3298.75	0.223341
3298.17	0.223337
3297.59	0.223336
3297.01	0.223312
3296.43	0.223251
3295.85	0.223155
3295.27	0.223104
3294.7	0.223083
3294.12	0.223101
3293.54	0.223075
3292.96	0.223049
3292.38	0.223016
3291.8	0.222983
3291.22	0.222908
3290.64	0.222876
3290.06	0.222859
3289.48	0.222831
3288.9	0.222771
3288.31	0.222726
3287.73	0.222723
3287.15	0.222679
3286.57	0.222602
3285.99	0.222596
3285.41	0.222566
3284.83	0.222541
3284.25	0.222478
3283.67	0.222479
3283.09	0.222414
3282.51	0.222357
3281.92	0.222325
3281.34	0.222321
3280.76	0.222308
3280.18	0.222324
3279.6	0.2223
3279.02	0.222305
3278.43	0.222225
3277.85	0.222134
3277.27	0.222125
3276.69	0.222027
3276.11	0.22198
3275.52	0.221971
3274.94	0.221908
3274.36	0.221858
3273.78	0.221823
3273.19	0.221811
3272.61	0.221855
3272.03	0.221783
3271.44	0.221761
3270.86	0.221754
3270.28	0.221679
3269.69	0.221588
3269.11	0.221593
3268.53	0.22158
3267.94	0.221562
3267.36	0.22148
3266.78	0.221426
3266.19	0.221412
3265.61	0.221363
3265.03	0.221307
3264.44	0.221333
3263.86	0.221301
3263.27	0.22127
3262.69	0.221222
3262.1	0.221177
3261.52	0.221133
3260.94	0.221049
3260.35	0.22097
3259.77	0.220923
3259.18	0.220851
3258.6	0.220797
3258.01	0.220796
3257.43	0.220808
3256.84	0.220795
3256.26	0.220735
3255.67	0.220736
3255.08	0.220685
3254.5	0.220622
3253.91	0.220639
3253.33	0.22066
3252.74	0.22065
3252.16	0.220595
3251.57	0.220518
3250.98	0.220511
3250.4	0.220463
3249.81	0.220363
3249.23	0.220291
3248.64	0.220256
3248.05	0.220191
3247.47	0.220156
3246.88	0.220126
3246.29	0.220184
3245.71	0.220175
3245.12	0.220122
3244.53	0.22007
3243.94	0.220043
3243.36	0.219978
3242.77	0.219929
3242.18	0.219899
3241.6	0.219886
3241.01	0.219785
3240.42	0.219713
3239.83	0.219657
3239.24	0.219616
3238.66	0.219626
3238.07	0.219575
3237.48	0.219616
3236.89	0.219615
3236.3	0.219576
3235.72	0.219504
3235.13	0.219471
3234.54	0.219415
3233.95	0.219405
3233.36	0.219341
3232.77	0.219355
3232.18	0.219297
3231.59	0.219229
3231.01	0.219135
3230.42	0.219092
3229.83	0.219012
3229.24	0.21895
3228.65	0.218974
3228.06	0.219004
3227.47	0.219056
3226.88	0.219076
3226.29	0.219048
3225.7	0.219008
3225.11	0.218932
3224.52	0.218802
3223.93	0.218723
3223.34	0.218674
3222.75	0.2187
3222.16	0.218654
3221.57	0.218639
3220.98	0.218656
3220.39	0.218693
3219.8	0.218653
3219.21	0.218618
3218.61	0.218578
3218.02	0.218517
3217.43	0.218403
3216.84	0.218305
3216.25	0.218293
3215.66	0.218246
3215.07	0.218152
3214.48	0.218127
3213.88	0.218122
3213.29	0.218121
3212.7	0.218096
3212.11	0.217985
3211.52	0.217967
3210.92	0.21791
3210.33	0.217864
3209.74	0.21782
3209.15	0.217784
3208.56	0.21777
3207.96	0.217731
3207.37	0.217691
3206.78	0.21764
3206.18	0.217611
3205.59	0.217568
3205	0.217473
3204.41	0.217421
3203.81	0.217445
3203.22	0.217429
3202.63	0.217446
3202.03	0.217351
3201.44	0.217289
3200.85	0.217196
3200.25	0.217119
3199.66	0.217106
3199.06	0.21713
3198.47	0.217113
3197.88	0.217102
3197.28	0.217045
3196.69	0.217034
3196.09	0.217006
3195.5	0.216968
3194.9	0.216965
3194.31	0.216971
3193.71	0.216925
3193.12	0.216874
3192.52	0.216803
3191.93	0.216819
3191.33	0.216766
3190.74	0.216717
3190.14	0.216682
3189.55	0.216641
3188.95	0.216564
3188.36	0.216534
3187.76	0.216536
3187.17	0.216546
3186.57	0.216462
3185.98	0.216459
3185.38	0.216412
3184.78	0.216372
3184.19	0.216335
3183.59	0.216353
3182.99	0.21633
3182.4	0.216294
3181.8	0.216237
3181.21	0.216217
3180.61	0.216134
3180.01	0.216054
3179.41	0.215991
3178.82	0.216004
3178.22	0.215955
3177.62	0.215948
3177.03	0.215973
3176.43	0.215957
3175.83	0.215927
3175.23	0.215852
3174.64	0.215779
3174.04	0.215763
3173.44	0.215693
3172.84	0.215633
3172.25	0.215625
3171.65	0.215589
3171.05	0.215597
3170.45	0.215558
3169.85	0.215576
3169.25	0.215584
3168.66	0.215555
3168.06	0.215557
3167.46	0.215503
3166.86	0.21541
3166.26	0.215356
3165.66	0.215317
3165.06	0.21534
3164.46	0.215333
3163.86	0.215386
3163.27	0.215457
3162.67	0.215448
3162.07	0.21537
3161.47	0.215358
3160.87	0.215314
3160.27	0.215279
3159.67	0.215275
3159.07	0.21536
3158.47	0.215399
3157.87	0.215402
3157.27	0.215377
3156.67	0.215384
3156.07	0.215326
3155.47	0.215342
3154.87	0.215341
3154.27	0.215387
3153.66	0.215374
3153.06	0.215286
3152.46	0.215278
3151.86	0.215184
3151.26	0.215123
3150.66	0.215105
3150.06	0.215083
3149.46	0.215072
3148.86	0.215049
3148.25	0.215001
3147.65	0.215106
3147.05	0.215062
3146.45	0.215073
3145.85	0.215057
3145.24	0.215023
3144.64	0.21493
3144.04	0.214825
3143.44	0.214724
3142.84	0.214666
3142.23	0.214577
3141.63	0.214539
3141.03	0.21455
3140.42	0.21454
3139.82	0.214534
3139.22	0.214474
3138.62	0.21441
3138.01	0.21434
3137.41	0.214283
3136.81	0.214186
3136.2	0.214111
3135.6	0.214069
3135	0.214068
3134.39	0.214009
3133.79	0.213961
3133.18	0.213914
3132.58	0.213881
3131.98	0.213826
3131.37	0.213748
3130.77	0.213701
3130.16	0.213705
3129.56	0.213615
3128.95	0.213561
3128.35	0.21346
3127.75	0.213419
3127.14	0.213327
3126.54	0.213222
3125.93	0.213185
3125.33	0.213243
3124.72	0.213273
3124.12	0.213295
3123.51	0.21325
3122.9	0.213157
3122.3	0.213042
3121.69	0.212923
3121.09	0.212878
3120.48	0.21285
3119.88	0.212868
3119.27	0.212845
3118.66	0.212818
3118.06	0.212725
3117.45	0.212717
3116.85	0.212677
3116.24	0.21268
3115.63	0.212661
3115.03	0.212714
3114.42	0.212729
3113.81	0.212709
3113.21	0.212578
3112.6	0.212539
3111.99	0.212483
3111.38	0.212428
3110.78	0.212358
3110.17	0.212357
3109.56	0.212416
3108.95	0.212427
3108.35	0.21235
3107.74	0.212387
3107.13	0.212359
3106.52	0.212334
3105.92	0.212322
3105.31	0.212298
3104.7	0.212388
3104.09	0.212417
3103.48	0.212394
3102.87	0.212377
3102.27	0.212346
3101.66	0.212404
3101.05	0.212468
3100.44	0.212466
3099.83	0.212469
3099.22	0.212449
3098.61	0.212376
3098	0.21226
3097.39	0.212234
3096.78	0.212276
3096.17	0.21227
3095.57	0.212349
3094.96	0.212392
3094.35	0.212491
3093.74	0.212518
3093.13	0.2125
3092.52	0.212491
3091.91	0.212374
3091.3	0.21224
3090.69	0.212166
3090.07	0.212075
3089.46	0.212099
3088.85	0.212118
3088.24	0.212142
3087.63	0.21207
3087.02	0.212023
3086.41	0.212043
3085.8	0.212017
3085.19	0.211971
3084.58	0.212022
3083.97	0.212165
3083.35	0.212211
3082.74	0.212158
3082.13	0.212185
3081.52	0.21224
3080.91	0.21224
3080.3	0.212214
3079.68	0.212291
3079.07	0.212352
3078.46	0.212302
3077.85	0.212293
3077.23	0.212303
3076.62	0.212362
3076.01	0.212412
3075.4	0.212495
3074.78	0.212626
3074.17	0.212635
3073.56	0.212732
3072.95	0.212898
3072.33	0.212995
3071.72	0.213202
3071.11	0.213438
3070.49	0.213654
3069.88	0.213793
3069.27	0.213943
3068.65	0.214013
3068.04	0.214133
3067.42	0.214187
3066.81	0.214337
3066.2	0.214675
3065.58	0.215139
3064.97	0.215675
3064.35	0.216301
3063.74	0.216806
3063.12	0.217314
3062.51	0.217786
3061.89	0.218269
3061.28	0.219087
3060.66	0.22002
3060.05	0.220916
3059.43	0.22172
3058.82	0.222467
3058.2	0.222915
3057.59	0.223371
3056.97	0.223755
3056.36	0.224445
3055.74	0.22518
3055.13	0.225445
3054.51	0.225677
3053.89	0.225793
3053.28	0.225569
3052.66	0.225324
3052.05	0.224792
3051.43	0.224406
3050.81	0.223771
3050.2	0.222832
3049.58	0.221969
3048.96	0.221253
3048.35	0.220563
3047.73	0.22006
3047.11	0.219492
3046.5	0.219064
3045.88	0.218432
3045.26	0.217977
3044.64	0.217567
3044.03	0.217384
3043.41	0.217118
3042.79	0.216884
3042.17	0.216605
3041.56	0.216251
3040.94	0.215862
3040.32	0.215438
3039.7	0.215003
3039.08	0.214628
3038.47	0.214206
3037.85	0.213748
3037.23	0.213309
3036.61	0.21293
3035.99	0.212664
3035.37	0.212234
3034.75	0.211865
3034.14	0.211469
3033.52	0.211134
3032.9	0.210809
3032.28	0.210459
3031.66	0.210203
3031.04	0.209999
3030.42	0.209827
3029.8	0.209617
3029.18	0.20936
3028.56	0.20929
3027.94	0.209177
3027.32	0.209055
3026.7	0.208914
3026.08	0.208865
3025.46	0.208779
3024.84	0.208659
3024.22	0.208527
3023.6	0.208383
3022.98	0.208323
3022.36	0.208368
3021.74	0.208316
3021.11	0.20832
3020.49	0.208272
3019.87	0.208204
3019.25	0.208023
3018.63	0.207879
3018.01	0.207896
3017.39	0.20792
3016.77	0.207952
3016.14	0.208004
3015.52	0.208055
3014.9	0.207958
3014.28	0.207827
3013.66	0.207753
3013.03	0.207711
3012.41	0.207615
3011.79	0.207627
3011.17	0.207567
3010.54	0.207452
3009.92	0.207315
3009.3	0.207219
3008.68	0.207188
3008.05	0.207217
3007.43	0.207218
3006.81	0.207209
3006.18	0.207105
3005.56	0.206991
3004.94	0.206918
3004.31	0.206892
3003.69	0.206841
3003.07	0.206812
3002.44	0.206764
3001.82	0.20666
3001.19	0.206605
3000.57	0.206617
2999.95	0.206619
2999.32	0.206581
2998.7	0.206593
2998.07	0.206547
2997.45	0.206385
2996.82	0.206264
2996.2	0.206198
2995.57	0.20614
2994.95	0.206074
2994.32	0.206033
2993.7	0.206005
2993.07	0.206017
2992.45	0.205955
2991.82	0.20595
2991.2	0.20602
2990.57	0.205994
2989.95	0.205994
2989.32	0.206008
2988.69	0.205893
2988.07	0.205894
2987.44	0.205793
2986.82	0.205745
2986.19	0.205708
2985.56	0.205605
2984.94	0.205561
2984.31	0.205598
2983.68	0.205596
2983.06	0.205538
2982.43	0.205527
2981.8	0.205532
2981.18	0.205435
2980.55	0.205339
2979.92	0.205245
2979.29	0.205324
2978.67	0.205306
2978.04	0.205254
2977.41	0.205296
2976.78	0.205322
2976.16	0.205312
2975.53	0.205191
2974.9	0.205065
2974.27	0.20507
2973.64	0.204955
2973.01	0.204898
2972.39	0.204885
2971.76	0.204893
2971.13	0.204959
2970.5	0.204911
2969.87	0.204926
2969.24	0.204965
2968.61	0.204983
2967.98	0.204959
2967.36	0.2049
2966.73	0.204874
2966.1	0.204814
2965.47	0.204791
2964.84	0.204759
2964.21	0.204785
2963.58	0.20474
2962.95	0.204694
2962.32	0.204643
2961.69	0.204643
2961.06	0.204587
2960.43	0.204639
2959.8	0.204597
2959.17	0.204565
2958.54	0.204519
2957.91	0.204473
2957.27	0.204411
2956.64	0.204403
2956.01	0.204398
2955.38	0.204427
2954.75	0.204413
2954.12	0.204354
2953.49	0.204394
2952.86	0.204392
2952.23	0.204432
2951.59	0.20455
2950.96	0.204573
2950.33	0.204497
2949.7	0.204472
2949.07	0.204506
2948.43	0.204521
2947.8	0.20445
2947.17	0.204517
2946.54	0.204573
2945.9	0.204515
2945.27	0.204478
2944.64	0.204465
2944.01	0.204587
2943.37	0.204433
2942.74	0.204301
2942.11	0.204388
2941.47	0.20429
2940.84	0.204172
2940.21	0.204129
2939.57	0.20408
2938.94	0.204097
2938.31	0.204022
2937.67	0.203991
2937.04	0.203968
2936.41	0.20381
2935.77	0.203735
2935.14	0.203646
2934.5	0.203589
2933.87	0.203528
2933.23	0.203497
2932.6	0.203467
2931.96	0.203404
2931.33	0.203408
2930.69	0.203454
2930.06	0.203367
2929.42	0.203285
2928.79	0.203159
2928.15	0.203042
2927.52	0.203076
2926.88	0.203064
2926.25	0.203077
2925.61	0.203054
2924.98	0.203005
2924.34	0.202854
2923.71	0.202808
2923.07	0.202766
2922.43	0.202843
2921.8	0.202799
2921.16	0.202845
2920.52	0.202846
2919.89	0.202814
2919.25	0.202642
2918.61	0.202643
2917.98	0.202605
2917.34	0.202602
2916.7	0.202499
2916.07	0.202485
2915.43	0.202442
2914.79	0.20235
2914.15	0.202258
2913.52	0.20232
2912.88	0.202369
2912.24	0.202391
2911.6	0.202435
2910.97	0.202339
2910.33	0.202351
2909.69	0.202249
2909.05	0.202037
2908.41	0.202083
2907.77	0.202077
2907.14	0.202108
2906.5	0.202177
2905.86	0.202131
2905.22	0.20225
2904.58	0.202111
2903.94	0.201981
2903.3	0.201934
2902.66	0.201952
2902.02	0.201963
2901.39	0.202007
2900.75	0.201958
2900.11	0.201917
2899.47	0.201772
2898.83	0.201734
2898.19	0.201564
2897.55	0.201626
2896.91	0.201542
2896.27	0.201622
2895.63	0.201609
2894.99	0.201581
2894.35	0.201571
2893.71	0.201508
2893.06	0.201445
2892.42	0.20148
2891.78	0.201343
2891.14	0.201304
2890.5	0.20129
2889.86	0.201321
2889.22	0.201316
2888.58	0.201319
2887.94	0.201382
2887.29	0.201412
2886.65	0.20134
2886.01	0.201206
2885.37	0.20103
2884.73	0.200987
2884.08	0.200951
2883.44	0.200944
2882.8	0.20096
2882.16	0.201
2881.52	0.200964
2880.87	0.200896
2880.23	0.20084
2879.59	0.200835
2878.94	0.200933
2878.3	0.200873
2877.66	0.200851
2877.02	0.200828
2876.37	0.200754
2875.73	0.200704
2875.09	0.200708
2874.44	0.20059
2873.8	0.200572
2873.15	0.200471
2872.51	0.200422
2871.87	0.200423
2871.22	0.200495
2870.58	0.200591
2869.93	0.200613
2869.29	0.200574
2868.65	0.200535
2868	0.200623
2867.36	0.200605
2866.71	0.200548
2866.07	0.200504
2865.42	0.200495
2864.78	0.200465
2864.13	0.200414
2863.49	0.200368
2862.84	0.2004
2862.2	0.200387
2861.55	0.200252
2860.9	0.200215
2860.26	0.200193
2859.61	0.200153
2858.97	0.200081
2858.32	0.199963
2857.67	0.20004
2857.03	0.200022
2856.38	0.199993
2855.74	0.200039
2855.09	0.200123
2854.44	0.200105
2853.8	0.200049
2853.15	0.199965
2852.5	0.199975
2851.85	0.199836
2851.21	0.199828
2850.56	0.19983
2849.91	0.199898
2849.27	0.199991
2848.62	0.200024
2847.97	0.200082
2847.32	0.200106
2846.67	0.200094
2846.03	0.200071
2845.38	0.199922
2844.73	0.199677
2844.08	0.199687
2843.43	0.199618
2842.79	0.199665
2842.14	0.19974
2841.49	0.199774
2840.84	0.199731
2840.19	0.199587
2839.54	0.199524
2838.89	0.199532
2838.24	0.19944
2837.59	0.199331
2836.94	0.199277
2836.3	0.199326
2835.65	0.199303
2835	0.199267
2834.35	0.199309
2833.7	0.199186
2833.05	0.199154
2832.4	0.199026
2831.75	0.198985
2831.1	0.198952
2830.45	0.198855
2829.8	0.198831
2829.14	0.1988
2828.49	0.198795
2827.84	0.198897
2827.19	0.198881
2826.54	0.19893
2825.89	0.198811
2825.24	0.198773
2824.59	0.198768
2823.94	0.198646
2823.28	0.198606
2822.63	0.198557
2821.98	0.198513
2821.33	0.198467
2820.68	0.198452
2820.03	0.198534
2819.37	0.198543
2818.72	0.19856
2818.07	0.198611
2817.42	0.198558
2816.76	0.198561
2816.11	0.198419
2815.46	0.198484
2814.81	0.198424
2814.15	0.198333
2813.5	0.198264
2812.85	0.198263
2812.19	0.198232
2811.54	0.198169
2810.89	0.198261
2810.23	0.198328
2809.58	0.19829
2808.93	0.198129
2808.27	0.198068
2807.62	0.198027
2806.96	0.19813
2806.31	0.198144
2805.66	0.19832
2805	0.198294
2804.35	0.198264
2803.69	0.19811
2803.04	0.197998
2802.38	0.197768
2801.73	0.197783
2801.07	0.19778
2800.42	0.197773
2799.76	0.197853
2799.11	0.197902
2798.45	0.19803
2797.8	0.197946
2797.14	0.197881
2796.49	0.197891
2795.83	0.197862
2795.17	0.197747
2794.52	0.197696
2793.86	0.197621
2793.21	0.197669
2792.55	0.197525
2791.89	0.197564
2791.24	0.197578
2790.58	0.197565
2789.92	0.197521
2789.27	0.197559
2788.61	0.197531
2787.95	0.197553
2787.3	0.197464
2786.64	0.197482
2785.98	0.197487
2785.32	0.197336
2784.67	0.197159
2784.01	0.197213
2783.35	0.197264
2782.69	0.197329
2782.04	0.197397
2781.38	0.197527
2780.72	0.19759
2780.06	0.197415
2779.4	0.197153
2778.74	0.197101
2778.09	0.197003
2777.43	0.196944
2776.77	0.196951
2776.11	0.197035
2775.45	0.197125
2774.79	0.197143
2774.13	0.197108
2773.47	0.197124
2772.81	0.197048
2772.15	0.196978
2771.49	0.196924
2770.84	0.197037
2770.18	0.197146
2769.52	0.197057
2768.86	0.197078
2768.2	0.197082
2767.54	0.197015
2766.87	0.196983
2766.21	0.196908
2765.55	0.197015
2764.89	0.197117
2764.23	0.197034
2763.57	0.197014
2762.91	0.197057
2762.25	0.196952
2761.59	0.196974
2760.93	0.196914
2760.27	0.196904
2759.6	0.196834
2758.94	0.19671
2758.28	0.196681
2757.62	0.196702
2756.96	0.196764
2756.3	0.196919
2755.63	0.197009
2754.97	0.196998
2754.31	0.196983
2753.65	0.196786
2752.98	0.196628
2752.32	0.196579
2751.66	0.196592
2751	0.196599
2750.33	0.19668
2749.67	0.196727
2749.01	0.196832
2748.34	0.196706
2747.68	0.196558
2747.02	0.196483
2746.35	0.196425
2745.69	0.196399
2745.03	0.196388
2744.36	0.196284
2743.7	0.196269
2743.04	0.196287
2742.37	0.19606
2741.71	0.195866
2741.04	0.195984
2740.38	0.196032
2739.71	0.196025
2739.05	0.195924
2738.38	0.19595
2737.72	0.195921
2737.05	0.195717
2736.39	0.195685
2735.72	0.195796
2735.06	0.195808
2734.39	0.195822
2733.73	0.195719
2733.06	0.195688
2732.4	0.195492
2731.73	0.195539
2731.07	0.195606
2730.4	0.195674
2729.73	0.195639
2729.07	0.195713
2728.4	0.195718
2727.73	0.195659
2727.07	0.195518
2726.4	0.195482
2725.73	0.195433
2725.07	0.195421
2724.4	0.195383
2723.73	0.195375
2723.07	0.195418
2722.4	0.195395
2721.73	0.195307
2721.06	0.195155
2720.4	0.195246
2719.73	0.195355
2719.06	0.195421
2718.39	0.195324
2717.73	0.195289
2717.06	0.195278
2716.39	0.19525
2715.72	0.195169
2715.05	0.195411
2714.38	0.19558
2713.72	0.195515
2713.05	0.195349
2712.38	0.19518
2711.71	0.195107
2711.04	0.195065
2710.37	0.195002
2709.7	0.195158
2709.03	0.195191
2708.36	0.195105
2707.69	0.194975
2707.02	0.194797
2706.35	0.194753
2705.68	0.194808
2705.01	0.194809
2704.34	0.19487
2703.67	0.195007
2703	0.19508
2702.33	0.194933
2701.66	0.194925
2700.99	0.194831
2700.32	0.194832
2699.65	0.194776
2698.98	0.194851
2698.31	0.194908
2697.64	0.194929
2696.97	0.194775
2696.29	0.194776
2695.62	0.194551
2694.95	0.1946
2694.28	0.194604
2693.61	0.194595
2692.94	0.19453
2692.26	0.194572
2691.59	0.194673
2690.92	0.194832
2690.25	0.194848
2689.58	0.194986
2688.9	0.19488
2688.23	0.194728
2687.56	0.194616
2686.88	0.194633
2686.21	0.194651
2685.54	0.194689
2684.87	0.194748
2684.19	0.194821
2683.52	0.194711
2682.85	0.194775
2682.17	0.194688
2681.5	0.19475
2680.82	0.194605
2680.15	0.194627
2679.48	0.194729
2678.8	0.194644
2678.13	0.194478
2677.45	0.194477
2676.78	0.194552
2676.1	0.194544
2675.43	0.19448
2674.76	0.194571
2674.08	0.194591
2673.41	0.194422
2672.73	0.194387
2672.06	0.194419
2671.38	0.194504
2670.7	0.194293
2670.03	0.194283
2669.35	0.194269
2668.68	0.194273
2668	0.194309
2667.33	0.194494
2666.65	0.194487
2665.97	0.194446
2665.3	0.194289
2664.62	0.194234
2663.95	0.194167
2663.27	0.194151
2662.59	0.194271
2661.92	0.194376
2661.24	0.194392
2660.56	0.194538
2659.88	0.194537
2659.21	0.194496
2658.53	0.194465
2657.85	0.194528
2657.17	0.194584
2656.5	0.194589
2655.82	0.194538
2655.14	0.194404
2654.46	0.194238
2653.79	0.194048
2653.11	0.194026
2652.43	0.194302
2651.75	0.194472
2651.07	0.194754
2650.39	0.194947
2649.72	0.19507
2649.04	0.195069
2648.36	0.195015
2647.68	0.194922
2647	0.194858
2646.32	0.194794
2645.64	0.194842
2644.96	0.194843
2644.28	0.194895
2643.6	0.194842
2642.92	0.19501
2642.24	0.195005
2641.56	0.194965
2640.88	0.194838
2640.2	0.194782
2639.52	0.194626
2638.84	0.194484
2638.16	0.194396
2637.48	0.194583
2636.8	0.194665
2636.12	0.194672
2635.44	0.194464
2634.76	0.194286
2634.08	0.193973
2633.39	0.193785
2632.71	0.193683
2632.03	0.193681
2631.35	0.193806
2630.67	0.193913
2629.99	0.193893
2629.3	0.193901
2628.62	0.193803
2627.94	0.19385
2627.26	0.193778
2626.58	0.193709
2625.89	0.193608
2625.21	0.193423
2624.53	0.193218
2623.85	0.193216
2623.16	0.193424
2622.48	0.193656
2621.8	0.193654
2621.11	0.193647
2620.43	0.193403
2619.75	0.193202
2619.06	0.192995
2618.38	0.192986
2617.7	0.193178
2617.01	0.193346
2616.33	0.193362
2615.64	0.193268
2614.96	0.193227
2614.28	0.193414
2613.59	0.193502
2612.91	0.193632
2612.22	0.193431
2611.54	0.193354
2610.85	0.193173
2610.17	0.192907
2609.48	0.192883
2608.8	0.192988
2608.11	0.193065
2607.43	0.193179
2606.74	0.19308
2606.06	0.193045
2605.37	0.192975
2604.68	0.193057
2604	0.19302
2603.31	0.193066
2602.63	0.193108
2601.94	0.193033
2601.25	0.192933
2600.57	0.192852
2599.88	0.192866
2599.19	0.193018
2598.51	0.192959
2597.82	0.19311
2597.13	0.193133
2596.45	0.193108
2595.76	0.193098
2595.07	0.193285
2594.38	0.193289
2593.7	0.193263
2593.01	0.193137
2592.32	0.193097
2591.63	0.193012
2590.95	0.193041
2590.26	0.193075
2589.57	0.193304
2588.88	0.193202
2588.19	0.193219
2587.5	0.193195
2586.82	0.193317
2586.13	0.1933
2585.44	0.193314
2584.75	0.193281
2584.06	0.193299
2583.37	0.193251
2582.68	0.193179
2581.99	0.19316
2581.3	0.193223
2580.61	0.193266
2579.92	0.193344
2579.23	0.193225
2578.54	0.193281
2577.85	0.193433
2577.16	0.193384
2576.47	0.193394
2575.78	0.193492
2575.09	0.19353
2574.4	0.193515
2573.71	0.193366
2573.02	0.193408
2572.33	0.193422
2571.64	0.193398
2570.95	0.193371
2570.26	0.193541
2569.56	0.19343
2568.87	0.193435
2568.18	0.193296
2567.49	0.193299
2566.8	0.193433
2566.11	0.193425
2565.41	0.193457
2564.72	0.193538
2564.03	0.193351
2563.34	0.19326
2562.64	0.19321
2561.95	0.1932
2561.26	0.193353
2560.57	0.193444
2559.87	0.193426
2559.18	0.193267
2558.49	0.192989
2557.79	0.192969
2557.1	0.193091
2556.41	0.193165
2555.71	0.193288
2555.02	0.19346
2554.33	0.193573
2553.63	0.193478
2552.94	0.193346
2552.24	0.19339
2551.55	0.193398
2550.86	0.193567
2550.16	0.193611
2549.47	0.193785
2548.77	0.194084
2548.08	0.194059
2547.38	0.193954
2546.69	0.194005
2545.99	0.194156
2545.3	0.194507
2544.6	0.194856
2543.91	0.195147
2543.21	0.195479
2542.51	0.195475
2541.82	0.195329
2541.12	0.195341
2540.43	0.195473
2539.73	0.195733
2539.03	0.196129
2538.34	0.196276
2537.64	0.196531
2536.95	0.196724
2536.25	0.196834
2535.55	0.196989
2534.86	0.197207
2534.16	0.197364
2533.46	0.19749
2532.76	0.197299
2532.07	0.197163
2531.37	0.197291
2530.67	0.197436
2529.97	0.197533
2529.28	0.197706
2528.58	0.197981
2527.88	0.198048
2527.18	0.19792
2526.48	0.198046
2525.79	0.198109
2525.09	0.198156
2524.39	0.197947
2523.69	0.19782
2522.99	0.19802
2522.29	0.197851
2521.59	0.197724
2520.89	0.197904
2520.19	0.197901
2519.5	0.197927
2518.8	0.197737
2518.1	0.197535
2517.4	0.197542
2516.7	0.197403
2516	0.197365
2515.3	0.1974
2514.6	0.197577
2513.9	0.197458
2513.2	0.19721
2512.5	0.196943
2511.8	0.196859
2511.09	0.196745
2510.39	0.196583
2509.69	0.196489
2508.99	0.196491
2508.29	0.196151
2507.59	0.195899
2506.89	0.195591
2506.19	0.195552
2505.49	0.195474
2504.78	0.195288
2504.08	0.195397
2503.38	0.195496
2502.68	0.195298
2501.98	0.19522
2501.27	0.195075
2500.57	0.19479
2499.87	0.194588
2499.17	0.194415
2498.46	0.194467
2497.76	0.194352
2497.06	0.194045
2496.35	0.193929
2495.65	0.193785
2494.95	0.193466
2494.25	0.193417
2493.54	0.193405
2492.84	0.193592
2492.13	0.193653
2491.43	0.19356
2490.73	0.193418
2490.02	0.193268
2489.32	0.193082
2488.61	0.193024
2487.91	0.192987
2487.21	0.193172
2486.5	0.193305
2485.8	0.193441
2485.09	0.193414
2484.39	0.193341
2483.68	0.193309
2482.98	0.193105
2482.27	0.192787
2481.57	0.192533
2480.86	0.19229
2480.15	0.192193
2479.45	0.192166
2478.74	0.19232
2478.04	0.192647
2477.33	0.192567
2476.62	0.192422
2475.92	0.192412
2475.21	0.192185
2474.51	0.191955
2473.8	0.191783
2473.09	0.191734
2472.39	0.191669
2471.68	0.191452
2470.97	0.191421
2470.26	0.191499
2469.56	0.191711
2468.85	0.191923
2468.14	0.192022
2467.43	0.192062
2466.73	0.191929
2466.02	0.192
2465.31	0.192068
2464.6	0.19183
2463.89	0.191935
2463.19	0.19187
2462.48	0.191693
2461.77	0.191482
2461.06	0.191436
2460.35	0.191675
2459.64	0.191599
2458.93	0.191524
2458.22	0.191662
2457.52	0.19149
2456.81	0.191418
2456.1	0.191275
2455.39	0.19136
2454.68	0.19144
2453.97	0.19131
2453.26	0.191486
2452.55	0.191599
2451.84	0.191464
2451.13	0.191504
2450.42	0.191379
2449.71	0.19145
2449	0.191318
2448.28	0.191218
2447.57	0.191313
2446.86	0.191363
2446.15	0.191365
2445.44	0.19149
2444.73	0.191651
2444.02	0.191695
2443.31	0.191531
2442.59	0.191441
2441.88	0.191294
2441.17	0.191307
2440.46	0.191285
2439.75	0.191224
2439.04	0.191348
2438.32	0.191405
2437.61	0.191274
2436.9	0.191114
2436.19	0.191036
2435.47	0.191256
2434.76	0.191374
2434.05	0.191412
2433.33	0.191437
2432.62	0.19153
2431.91	0.191266
2431.19	0.191012
2430.48	0.190835
2429.77	0.190981
2429.05	0.191108
2428.34	0.191325
2427.62	0.1913
2426.91	0.191489
2426.2	0.191352
2425.48	0.191203
2424.77	0.191168
2424.05	0.191233
2423.34	0.191191
2422.62	0.191383
2421.91	0.191267
2421.19	0.19137
2420.48	0.191263
2419.76	0.191195
2419.05	0.191295
2418.33	0.191429
2417.62	0.19159
2416.9	0.191719
2416.18	0.191742
2415.47	0.191731
2414.75	0.191819
2414.04	0.191579
2413.32	0.191491
2412.6	0.191362
2411.89	0.191349
2411.17	0.19108
2410.45	0.191047
2409.74	0.19103
2409.02	0.191459
2408.3	0.191419
2407.58	0.191583
2406.87	0.191505
2406.15	0.191563
2405.43	0.191561
2404.71	0.191577
2404	0.191639
2403.28	0.191789
2402.56	0.191725
2401.84	0.191694
2401.12	0.191478
2400.41	0.191378
2399.69	0.191332
2398.97	0.191294
2398.25	0.191429
2397.53	0.191554
2396.81	0.191688
2396.09	0.191705
2395.37	0.19173
2394.65	0.191741
2393.94	0.191577
2393.22	0.191518
2392.5	0.191587
2391.78	0.191566
2391.06	0.191577
2390.34	0.191655
2389.62	0.191671
2388.9	0.191836
2388.18	0.191777
2387.46	0.191773
2386.73	0.191685
2386.01	0.191471
2385.29	0.191316
2384.57	0.19138
2383.85	0.191464
2383.13	0.191785
2382.41	0.191999
2381.69	0.19196
2380.97	0.191818
2380.24	0.191628
2379.52	0.191461
2378.8	0.191613
2378.08	0.191667
2377.36	0.191896
2376.63	0.192131
2375.91	0.192007
2375.19	0.192082
2374.47	0.192135
2373.74	0.192164
2373.02	0.192039
2372.3	0.191715
2371.58	0.191867
2370.85	0.192
2370.13	0.192031
2369.41	0.192268
2368.68	0.192381
2367.96	0.192499
2367.23	0.192424
2366.51	0.192323
2365.79	0.192325
2365.06	0.192205
2364.34	0.192028
2363.61	0.192189
2362.89	0.192127
2362.16	0.192149
2361.44	0.192266
2360.72	0.192048
2359.99	0.19176
2359.27	0.191731
2358.54	0.191712
2357.81	0.191922
2357.09	0.191781
2356.36	0.191746
2355.64	0.191909
2354.91	0.191723
2354.19	0.191818
2353.46	0.192104
2352.73	0.192303
2352.01	0.192489
2351.28	0.192331
2350.56	0.192331
2349.83	0.192324
2349.1	0.19222
2348.38	0.192235
2347.65	0.192176
2346.92	0.192089
2346.19	0.1919
2345.47	0.191699
2344.74	0.191703
2344.01	0.191839
2343.29	0.191958
2342.56	0.192107
2341.83	0.192062
2341.1	0.191966
2340.37	0.191771
2339.65	0.191795
2338.92	0.192001
2338.19	0.19212
2337.46	0.191925
2336.73	0.19193
2336	0.191755
2335.27	0.191557
2334.54	0.191641
2333.82	0.191822
2333.09	0.192232
2332.36	0.19225
2331.63	0.19219
2330.9	0.19231
2330.17	0.192549
2329.44	0.192477
2328.71	0.192674
2327.98	0.192807
2327.25	0.19307
2326.52	0.193056
2325.79	0.193137
2325.06	0.193345
2324.33	0.193573
2323.59	0.193575
2322.86	0.193721
2322.13	0.193915
2321.4	0.194049
2320.67	0.194099
2319.94	0.194413
2319.21	0.194484
2318.48	0.194139
2317.74	0.194192
2317.01	0.194295
2316.28	0.194372
2315.55	0.194346
2314.82	0.194541
2314.08	0.19466
2313.35	0.194507
2312.62	0.194136
2311.89	0.194002
2311.15	0.193861
2310.42	0.193706
2309.69	0.193589
2308.95	0.193583
2308.22	0.193348
2307.49	0.193218
2306.75	0.193295
2306.02	0.193212
2305.29	0.193262
2304.55	0.193189
2303.82	0.193194
2303.08	0.193053
2302.35	0.192812
2301.62	0.192491
2300.88	0.192516
2300.15	0.19236
2299.41	0.192289
2298.68	0.192257
2297.94	0.192567
2297.21	0.192767
2296.47	0.192949
2295.74	0.19288
2295	0.192587
2294.27	0.192172
2293.53	0.191818
2292.79	0.191854
2292.06	0.192063
2291.32	0.192358
2290.59	0.192616
2289.85	0.192672
2289.11	0.192497
2288.38	0.19218
2287.64	0.191809
2286.9	0.191977
2286.17	0.191982
2285.43	0.192169
2284.69	0.19215
2283.96	0.192291
2283.22	0.192425
2282.48	0.192263
2281.74	0.192106
2281.01	0.192042
2280.27	0.192144
2279.53	0.192192
2278.79	0.191959
2278.05	0.191958
2277.32	0.191857
2276.58	0.191823
2275.84	0.192047
2275.1	0.192201
2274.36	0.192519
2273.62	0.192452
2272.88	0.192151
2272.14	0.192036
2271.4	0.19197
2270.67	0.191962
2269.93	0.192216
2269.19	0.192444
2268.45	0.192438
2267.71	0.192319
2266.97	0.192305
2266.23	0.192502
2265.49	0.19266
2264.75	0.192572
2264.01	0.192565
2263.26	0.192445
2262.52	0.192378
2261.78	0.192173
2261.04	0.192279
2260.3	0.192313
2259.56	0.192298
2258.82	0.192242
2258.08	0.192353
2257.34	0.192142
2256.59	0.192107
2255.85	0.191996
2255.11	0.192308
2254.37	0.1922
2253.63	0.192387
2252.88	0.192419
2252.14	0.192495
2251.4	0.192344
2250.66	0.192424
2249.91	0.192521
2249.17	0.192641
2248.43	0.192297
2247.68	0.192368
2246.94	0.192258
2246.2	0.192086
2245.45	0.192359
2244.71	0.192645
2243.97	0.192946
2243.22	0.192837
2242.48	0.192704
2241.74	0.192572
2240.99	0.192405
2240.25	0.192073
2239.5	0.192128
2238.76	0.192119
2238.01	0.192077
2237.27	0.192007
2236.52	0.192126
2235.78	0.192125
2235.03	0.191951
2234.29	0.192033
2233.54	0.192226
2232.8	0.192323
2232.05	0.192551
2231.31	0.192803
2230.56	0.193047
2229.81	0.193151
2229.07	0.19309
2228.32	0.193371
2227.57	0.193638
2226.83	0.193519
2226.08	0.193537
2225.33	0.193287
2224.59	0.193122
2223.84	0.192932
2223.09	0.192894
2222.35	0.192948
2221.6	0.193219
2220.85	0.193217
2220.1	0.193437
2219.36	0.193602
2218.61	0.19373
2217.86	0.193597
2217.11	0.193661
2216.36	0.193628
2215.62	0.19359
2214.87	0.193543
2214.12	0.193844
2213.37	0.194092
2212.62	0.194175
2211.87	0.194284
2211.12	0.194397
2210.37	0.194362
2209.62	0.194034
2208.87	0.194075
2208.13	0.194228
2207.38	0.194448
2206.63	0.194539
2205.88	0.194702
2205.13	0.194815
2204.38	0.195065
2203.63	0.194884
2202.87	0.195155
2202.12	0.194954
2201.37	0.194845
2200.62	0.194607
2199.87	0.194423
2199.12	0.194676
2198.37	0.19469
2197.62	0.194865
2196.87	0.195406
2196.12	0.195576
2195.36	0.195515
2194.61	0.195388
2193.86	0.195135
2193.11	0.19507
2192.36	0.194689
2191.6	0.194902
2190.85	0.19525
2190.1	0.195511
2189.35	0.195749
2188.59	0.195739
2187.84	0.195676
2187.09	0.195718
2186.33	0.195788
2185.58	0.19588
2184.83	0.195851
2184.07	0.195811
2183.32	0.196105
2182.57	0.195954
2181.81	0.195861
2181.06	0.195715
2180.3	0.195533
2179.55	0.195135
2178.8	0.194855
2178.04	0.194539
2177.29	0.194818
2176.53	0.194769
2175.78	0.194902
2175.02	0.195151
2174.27	0.195003
2173.51	0.194931
2172.76	0.194861
2172	0.194773
2171.25	0.195035
2170.49	0.194976
2169.73	0.19508
2168.98	0.195317
2168.22	0.195243
2167.47	0.195283
2166.71	0.195015
2165.95	0.195224
2165.2	0.195311
2164.44	0.195229
2163.68	0.195289
2162.93	0.195476
2162.17	0.195506
2161.41	0.195414
2160.65	0.1953
2159.9	0.195671
2159.14	0.195813
2158.38	0.195963
2157.62	0.196024
2156.87	0.195854
2156.11	0.195668
2155.35	0.195626
2154.59	0.195782
2153.83	0.195879
2153.07	0.196064
2152.32	0.196054
2151.56	0.196112
2150.8	0.195909
2150.04	0.195829
2149.28	0.195852
2148.52	0.195927
2147.76	0.196016
2147	0.196084
2146.24	0.195908
2145.48	0.19595
2144.72	0.196082
2143.96	0.19583
2143.2	0.195659
2142.44	0.1954
2141.68	0.195589
2140.92	0.195491
2140.16	0.195658
2139.4	0.196047
2138.64	0.196544
2137.88	0.196389
2137.11	0.196251
2136.35	0.195754
2135.59	0.195418
2134.83	0.194904
2134.07	0.194685
2133.31	0.194658
2132.54	0.194725
2131.78	0.194705
2131.02	0.194941
2130.26	0.194751
2129.5	0.194762
2128.73	0.194983
2127.97	0.195067
2127.21	0.19527
2126.44	0.195546
2125.68	0.195762
2124.92	0.196111
2124.16	0.196124
2123.39	0.196256
2122.63	0.196327
2121.86	0.196544
2121.1	0.196605
2120.34	0.196361
2119.57	0.196215
2118.81	0.196106
2118.04	0.195924
2117.28	0.195835
2116.51	0.196114
2115.75	0.196687
2114.99	0.196961
2114.22	0.196793
2113.46	0.196758
2112.69	0.196484
2111.92	0.196267
2111.16	0.196227
2110.39	0.196574
2109.63	0.196763
2108.86	0.196746
2108.1	0.196446
2107.33	0.196232
2106.56	0.19612
2105.8	0.196096
2105.03	0.196177
2104.26	0.196175
2103.5	0.196387
2102.73	0.196248
2101.96	0.196327
2101.2	0.196372
2100.43	0.196488
2099.66	0.196549
2098.89	0.196592
2098.13	0.196188
2097.36	0.196353
2096.59	0.196064
2095.82	0.196204
2095.06	0.19654
2094.29	0.196729
2093.52	0.196755
2092.75	0.196608
2091.98	0.196379
2091.21	0.196364
2090.44	0.196062
2089.67	0.196015
2088.91	0.196214
2088.14	0.196365
2087.37	0.196184
2086.6	0.196286
2085.83	0.196394
2085.06	0.196192
2084.29	0.19607
2083.52	0.196214
2082.75	0.196205
2081.98	0.196326
2081.21	0.196401
2080.44	0.19648
2079.67	0.196399
2078.9	0.196253
2078.12	0.196381
2077.35	0.196689
2076.58	0.196569
2075.81	0.196785
2075.04	0.196858
2074.27	0.196579
2073.5	0.196248
2072.72	0.196114
2071.95	0.196112
2071.18	0.196117
2070.41	0.19612
2069.64	0.196405
2068.86	0.196336
2068.09	0.19624
2067.32	0.19601
2066.55	0.196003
2065.77	0.195967
2065	0.196165
2064.23	0.196658
2063.45	0.196869
2062.68	0.196841
2061.91	0.196786
2061.13	0.196552
2060.36	0.196371
2059.58	0.19608
2058.81	0.196159
2058.04	0.196485
2057.26	0.196453
2056.49	0.196416
2055.71	0.196453
2054.94	0.196536
2054.16	0.196609
2053.39	0.196788
2052.61	0.196923
2051.84	0.197025
2051.06	0.19693
2050.29	0.196775
2049.51	0.196619
2048.73	0.196898
2047.96	0.19697
2047.18	0.197108
2046.41	0.197418
2045.63	0.197624
2044.85	0.197729
2044.08	0.197707
2043.3	0.197486
2042.52	0.197479
2041.75	0.197127
2040.97	0.197047
2040.19	0.197383
2039.42	0.197409
2038.64	0.197516
2037.86	0.198014
2037.08	0.198203
2036.31	0.198217
2035.53	0.198164
2034.75	0.198136
2033.97	0.197923
2033.19	0.197462
2032.41	0.197542
2031.64	0.197948
2030.86	0.198123
2030.08	0.198352
2029.3	0.198719
2028.52	0.198955
2027.74	0.198581
2026.96	0.19822
2026.18	0.198263
2025.4	0.1982
2024.62	0.198158
2023.84	0.198183
2023.06	0.198492
2022.28	0.198492
2021.5	0.198055
2020.72	0.197952
2019.94	0.1983
2019.16	0.198464
2018.38	0.198604
2017.6	0.198599
2016.82	0.19877
2016.04	0.198839
2015.25	0.19871
2014.47	0.198909
2013.69	0.199155
2012.91	0.198953
2012.13	0.19863
2011.35	0.198275
2010.56	0.198496
2009.78	0.19864
2009	0.198705
2008.22	0.19907
2007.43	0.199418
2006.65	0.199259
2005.87	0.199069
2005.09	0.199203
2004.3	0.199572
2003.52	0.199536
2002.74	0.199548
2001.95	0.19974
2001.17	0.199683
2000.39	0.199501
1999.6	0.19947
1998.82	0.199517
1998.03	0.199623
1997.25	0.199564
1996.46	0.199489
1995.68	0.199502
1994.9	0.199426
1994.11	0.19929
1993.33	0.199203
1992.54	0.199108
1991.75	0.199391
1990.97	0.199341
1990.18	0.19954
1989.4	0.199864
1988.61	0.200431
1987.83	0.200413
1987.04	0.200676
1986.25	0.200769
1985.47	0.200741
1984.68	0.200262
1983.9	0.200223
1983.11	0.200524
1982.32	0.200925
1981.54	0.201055
1980.75	0.201305
1979.96	0.201344
1979.17	0.201281
1978.39	0.200974
1977.6	0.201139
1976.81	0.20108
1976.02	0.200951
1975.24	0.200708
1974.45	0.200678
1973.66	0.200948
1972.87	0.200943
1972.08	0.200891
1971.29	0.200928
1970.5	0.20059
1969.72	0.200724
1968.93	0.200714
1968.14	0.200931
1967.35	0.201351
1966.56	0.201014
1965.77	0.200753
1964.98	0.200556
1964.19	0.200575
1963.4	0.201032
1962.61	0.201192
1961.82	0.20141
1961.03	0.201586
1960.24	0.20152
1959.45	0.201178
1958.66	0.201218
1957.87	0.201219
1957.08	0.201317
1956.28	0.201375
1955.49	0.201638
1954.7	0.201752
1953.91	0.201953
1953.12	0.202027
1952.33	0.202119
1951.54	0.202158
1950.74	0.201958
1949.95	0.201841
1949.16	0.201784
1948.37	0.20179
1947.57	0.201748
1946.78	0.201948
1945.99	0.202072
1945.2	0.202187
1944.4	0.20193
1943.61	0.201933
1942.82	0.201923
1942.02	0.201812
1941.23	0.201505
1940.43	0.201754
1939.64	0.201933
1938.85	0.2022
1938.05	0.202209
1937.26	0.202247
1936.46	0.202461
1935.67	0.202279
1934.87	0.202163
1934.08	0.202645
1933.28	0.202876
1932.49	0.203315
1931.69	0.203448
1930.9	0.203422
1930.1	0.203549
1929.31	0.203557
1928.51	0.203314
1927.72	0.203446
1926.92	0.203404
1926.12	0.203458
1925.33	0.203279
1924.53	0.203296
1923.73	0.203724
1922.94	0.20393
1922.14	0.203816
1921.34	0.203855
1920.55	0.203935
1919.75	0.204076
1918.95	0.203679
1918.16	0.203652
1917.36	0.20348
1916.56	0.203159
1915.76	0.202942
1914.96	0.202945
1914.17	0.203346
1913.37	0.203512
1912.57	0.203607
1911.77	0.203545
1910.97	0.203388
1910.17	0.203472
1909.37	0.203574
1908.58	0.203624
1907.78	0.203781
1906.98	0.203619
1906.18	0.203626
1905.38	0.203658
1904.58	0.204186
1903.78	0.204623
1902.98	0.204889
1902.18	0.204842
1901.38	0.204575
1900.58	0.204407
1899.78	0.204054
1898.98	0.204046
1898.17	0.204241
1897.37	0.204602
1896.57	0.204675
1895.77	0.204742
1894.97	0.204673
1894.17	0.204987
1893.37	0.205201
1892.57	0.20538
1891.76	0.205623
1890.96	0.205851
1890.16	0.205518
1889.36	0.20536
1888.55	0.205136
1887.75	0.205116
1886.95	0.205275
1886.15	0.205524
1885.34	0.206114
1884.54	0.206396
1883.74	0.206322
1882.93	0.206341
1882.13	0.206251
1881.33	0.205906
1880.52	0.205639
1879.72	0.205815
1878.91	0.20608
1878.11	0.20629
1877.31	0.206181
1876.5	0.20623
1875.7	0.206376
1874.89	0.205915
1874.09	0.205776
1873.28	0.206039
1872.48	0.206198
1871.67	0.206406
1870.87	0.206817
1870.06	0.207026
1869.26	0.207398
1868.45	0.207282
1867.64	0.207239
1866.84	0.207065
1866.03	0.206873
1865.23	0.206905
1864.42	0.207035
1863.61	0.20672
1862.81	0.206771
1862	0.206737
1861.19	0.206968
1860.38	0.207095
1859.58	0.20758
1858.77	0.208003
1857.96	0.20795
1857.15	0.207699
1856.35	0.207511
1855.54	0.2075
1854.73	0.207491
1853.92	0.20747
1853.11	0.207772
1852.31	0.207939
1851.5	0.20801
1850.69	0.207867
1849.88	0.208122
1849.07	0.208134
1848.26	0.207827
1847.45	0.208084
1846.64	0.208156
1845.83	0.208541
1845.02	0.208637
1844.21	0.208715
1843.4	0.20917
1842.59	0.208924
1841.78	0.208713
1840.97	0.209079
1840.16	0.209032
1839.35	0.209578
1838.54	0.209451
1837.73	0.20978
1836.92	0.210194
1836.11	0.210171
1835.3	0.210208
1834.48	0.210661
1833.67	0.210928
1832.86	0.211119
1832.05	0.211054
1831.24	0.211511
1830.42	0.211794
1829.61	0.212075
1828.8	0.212712
1827.99	0.213712
1827.17	0.214581
1826.36	0.215001
1825.55	0.215769
1824.73	0.216329
1823.92	0.2164
1823.11	0.216374
1822.29	0.216498
1821.48	0.21644
1820.67	0.216676
1819.85	0.217046
1819.04	0.21782
1818.22	0.217992
1817.41	0.218381
1816.6	0.218541
1815.78	0.218506
1814.97	0.218231
1814.15	0.217846
1813.34	0.217476
1812.52	0.217078
1811.71	0.216336
1810.89	0.215497
1810.07	0.214842
1809.26	0.214314
1808.44	0.214012
1807.63	0.213638
1806.81	0.213484
1805.99	0.213478
1805.18	0.213546
1804.36	0.212859
1803.54	0.212401
1802.73	0.212027
1801.91	0.211849
1801.09	0.211832
1800.28	0.211563
1799.46	0.211443
1798.64	0.211265
1797.82	0.210814
1797.01	0.210523
1796.19	0.210394
1795.37	0.210393
1794.55	0.210632
1793.73	0.210656
1792.92	0.210761
1792.1	0.211029
1791.28	0.211266
1790.46	0.211261
1789.64	0.211379
1788.82	0.211209
1788	0.211126
1787.18	0.211089
1786.36	0.210917
1785.54	0.21108
1784.72	0.210721
1783.9	0.210532
1783.08	0.210798
1782.26	0.210629
1781.44	0.210397
1780.62	0.210654
1779.8	0.210486
1778.98	0.210669
1778.16	0.210494
1777.34	0.210475
1776.52	0.210585
1775.69	0.210761
1774.87	0.210522
1774.05	0.210678
1773.23	0.21047
1772.41	0.21077
1771.59	0.210669
1770.76	0.210575
1769.94	0.210676
1769.12	0.21117
1768.3	0.211206
1767.47	0.211436
1766.65	0.211312
1765.83	0.211505
1765	0.211536
1764.18	0.211646
1763.36	0.211347
1762.53	0.211573
1761.71	0.211643
1760.88	0.212017
1760.06	0.211907
1759.24	0.212158
1758.41	0.212174
1757.59	0.212395
1756.76	0.212045
1755.94	0.21202
1755.11	0.212085
1754.29	0.212236
1753.46	0.212244
1752.64	0.212548
1751.81	0.212541
1750.99	0.212698
1750.16	0.21226
1749.34	0.212034
1748.51	0.211985
1747.68	0.212189
1746.86	0.212255
1746.03	0.212401
1745.2	0.212284
1744.38	0.212173
1743.55	0.2122
1742.72	0.212157
1741.9	0.212338
1741.07	0.212555
1740.24	0.212713
1739.41	0.213116
1738.59	0.21352
1737.76	0.213696
1736.93	0.214129
1736.1	0.213678
1735.27	0.213235
1734.45	0.212821
1733.62	0.212656
1732.79	0.212606
1731.96	0.212576
1731.13	0.212123
1730.3	0.212387
1729.47	0.21222
1728.64	0.212376
1727.81	0.212896
1726.98	0.212932
1726.15	0.213266
1725.32	0.213263
1724.49	0.212868
1723.66	0.212952
1722.83	0.212867
1722	0.212677
1721.17	0.213027
1720.34	0.212828
1719.51	0.213419
1718.68	0.213448
1717.85	0.213524
1717.02	0.213934
1716.19	0.214098
1715.35	0.213967
1714.52	0.214191
1713.69	0.213898
1712.86	0.214142
1712.03	0.213921
1711.19	0.213511
1710.36	0.213527
1709.53	0.213332
1708.7	0.213296
1707.86	0.213416
1707.03	0.213676
1706.2	0.214015
1705.36	0.214134
1704.53	0.214281
1703.7	0.214624
1702.86	0.214774
1702.03	0.214966
1701.19	0.215125
1700.36	0.214994
1699.53	0.214831
1698.69	0.21432
1697.86	0.214475
1697.02	0.214522
1696.19	0.214526
1695.35	0.214909
1694.52	0.215343
1693.68	0.215492
1692.85	0.215881
1692.01	0.215884
1691.17	0.216233
1690.34	0.215898
1689.5	0.21561
1688.67	0.215867
1687.83	0.216053
1686.99	0.216057
1686.16	0.216654
1685.32	0.216923
1684.48	0.21723
1683.65	0.217024
1682.81	0.217754
1681.97	0.218484
1681.13	0.219347
1680.3	0.219776
1679.46	0.220685
1678.62	0.220772
1677.78	0.221058
1676.94	0.221034
1676.11	0.221562
1675.27	0.221825
1674.43	0.222317
1673.59	0.222463
1672.75	0.222774
1671.91	0.223347
1671.07	0.223828
1670.23	0.224098
1669.39	0.224464
1668.56	0.225309
1667.72	0.226221
1666.88	0.226751
1666.04	0.227473
1665.2	0.228398
1664.36	0.228708
1663.51	0.22917
1662.67	0.229444
1661.83	0.230067
1660.99	0.230842
1660.15	0.231163
1659.31	0.231638
1658.47	0.231986
1657.63	0.232248
1656.79	0.232722
1655.94	0.232861
1655.1	0.232892
1654.26	0.233268
1653.42	0.233415
1652.58	0.233324
1651.73	0.233595
1650.89	0.233206
1650.05	0.232916
1649.21	0.233118
1648.36	0.233127
1647.52	0.23309
1646.68	0.233109
1645.83	0.233026
1644.99	0.233058
1644.14	0.2323
1643.3	0.232058
1642.46	0.232444
1641.61	0.232541
1640.77	0.231906
1639.92	0.231922
1639.08	0.231797
1638.23	0.231647
1637.39	0.231147
1636.54	0.231227
1635.7	0.231349
1634.85	0.231698
1634.01	0.231138
1633.16	0.231447
1632.32	0.23148
1631.47	0.231509
1630.62	0.231576
1629.78	0.231826
1628.93	0.23194
1628.09	0.232253
1627.24	0.232152
1626.39	0.23219
1625.55	0.232591
1624.7	0.232803
1623.85	0.233192
1623	0.233218
1622.16	0.23347
1621.31	0.233649
1620.46	0.233439
1619.61	0.233132
1618.76	0.233176
1617.92	0.233574
1617.07	0.233992
1616.22	0.23454
1615.37	0.235536
1614.52	0.23641
1613.67	0.236834
1612.82	0.237075
1611.97	0.23747
1611.13	0.23807
1610.28	0.238693
1609.43	0.239426
1608.58	0.240001
1607.73	0.240589
1606.88	0.241485
1606.03	0.242581
1605.18	0.244329
1604.32	0.246012
1603.47	0.248113
1602.62	0.250248
1601.77	0.252256
1600.92	0.254252
1600.07	0.257078
1599.22	0.259845
1598.37	0.262963
1597.51	0.266484
1596.66	0.270024
1595.81	0.273679
1594.96	0.277863
1594.11	0.282859
1593.25	0.288983
1592.4	0.29561
1591.55	0.30301
1590.7	0.312295
1589.84	0.322308
1588.99	0.334307
1588.14	0.349767
1587.28	0.368922
1586.43	0.393186
1585.58	0.423436
1584.72	0.460628
1583.87	0.507581
1583.01	0.564498
1582.16	0.630473
1581.3	0.703471
1580.45	0.778146
1579.59	0.849641
1578.74	0.911101
1577.88	0.957828
1577.03	0.987845
1576.17	1
1575.32	0.996494
1574.46	0.979392
1573.61	0.951779
1572.75	0.915528
1571.89	0.871617
1571.04	0.822832
1570.18	0.769242
1569.33	0.712133
1568.47	0.655571
1567.61	0.600878
1566.75	0.549862
1565.9	0.503762
1565.04	0.463368
1564.18	0.429536
1563.33	0.400247
1562.47	0.375338
1561.61	0.354769
1560.75	0.337657
1559.89	0.323215
1559.04	0.311885
1558.18	0.302394
1557.32	0.295237
1556.46	0.28984
1555.6	0.285987
1554.74	0.283178
1553.88	0.28106
1553.02	0.279485
1552.16	0.277326
1551.3	0.27398
1550.44	0.271184
1549.58	0.268025
1548.72	0.264585
1547.86	0.261073
1547	0.258268
1546.14	0.255601
1545.28	0.252774
1544.42	0.249989
1543.56	0.247672
1542.7	0.245633
1541.84	0.243382
1540.98	0.241347
1540.11	0.239924
1539.25	0.238565
1538.39	0.237645
1537.53	0.236602
1536.67	0.23562
1535.8	0.235249
1534.94	0.234222
1534.08	0.233571
1533.22	0.233308
1532.35	0.233098
1531.49	0.232714
1530.63	0.232197
1529.76	0.231958
1528.9	0.23138
1528.04	0.230475
1527.17	0.22986
1526.31	0.229865
1525.44	0.229888
1524.58	0.229744
1523.72	0.229859
1522.85	0.230078
1521.99	0.229526
1521.12	0.22906
1520.26	0.228861
1519.39	0.228699
1518.53	0.2287
1517.66	0.228723
1516.8	0.228767
1515.93	0.22849
1515.06	0.228051
1514.2	0.22815
1513.33	0.227857
1512.47	0.227225
1511.6	0.227349
1510.73	0.227396
1509.87	0.227774
1509	0.228024
1508.13	0.228312
1507.26	0.228844
1506.4	0.228351
1505.53	0.228065
1504.66	0.228215
1503.79	0.228132
1502.93	0.228369
1502.06	0.22845
1501.19	0.228292
1500.32	0.22802
1499.45	0.227821
1498.58	0.228006
1497.71	0.228451
1496.85	0.228892
1495.98	0.229191
1495.11	0.229387
1494.24	0.22939
1493.37	0.22926
1492.5	0.229598
1491.63	0.229932
1490.76	0.230387
1489.89	0.23117
1489.02	0.23111
1488.15	0.231288
1487.28	0.23132
1486.4	0.231148
1485.53	0.231021
1484.66	0.231173
1483.79	0.231159
1482.92	0.231706
1482.05	0.232236
1481.18	0.232836
1480.3	0.233747
1479.43	0.234757
1478.56	0.235968
1477.69	0.23691
1476.82	0.237113
1475.94	0.237526
1475.07	0.237801
1474.2	0.237106
1473.32	0.236235
1472.45	0.235268
1471.58	0.23416
1470.7	0.232804
1469.83	0.23182
1468.96	0.231322
1468.08	0.231142
1467.21	0.230717
1466.33	0.230376
1465.46	0.230018
1464.58	0.22995
1463.71	0.229911
1462.83	0.23001
1461.96	0.229672
1461.08	0.22929
1460.21	0.229081
1459.33	0.228807
1458.46	0.228651
1457.58	0.228747
1456.71	0.228428
1455.83	0.228801
1454.95	0.228847
1454.08	0.228799
1453.2	0.229238
1452.32	0.229146
1451.45	0.228869
1450.57	0.228647
1449.69	0.22848
1448.82	0.229133
1447.94	0.229566
1447.06	0.229618
1446.18	0.229851
1445.3	0.22956
1444.43	0.229143
1443.55	0.228838
1442.67	0.228685
1441.79	0.228763
1440.91	0.228828
1440.03	0.229166
1439.15	0.229638
1438.28	0.230031
1437.4	0.230114
1436.52	0.230377
1435.64	0.230383
1434.76	0.230878
1433.88	0.231048
1433	0.231411
1432.12	0.231262
1431.24	0.231059
1430.36	0.230301
1429.47	0.23
1428.59	0.230011
1427.71	0.230729
1426.83	0.230964
1425.95	0.231003
1425.07	0.230737
1424.19	0.230751
1423.31	0.23072
1422.42	0.230626
1421.54	0.23102
1420.66	0.231509
1419.78	0.232209
1418.89	0.232545
1418.01	0.232962
1417.13	0.23314
1416.25	0.233057
1415.36	0.232702
1414.48	0.232748
1413.6	0.232835
1412.71	0.233384
1411.83	0.23339
1410.94	0.233524
1410.06	0.233484
1409.18	0.233465
1408.29	0.233295
1407.41	0.233603
1406.52	0.233356
1405.64	0.233169
1404.75	0.232666
1403.87	0.232475
1402.98	0.232608
1402.1	0.233109
1401.21	0.233398
1400.33	0.233898
1399.44	0.234412
1398.55	0.234456
1397.67	0.234222
1396.78	0.234371
1395.89	0.234759
1395.01	0.235443
1394.12	0.236164
1393.23	0.237002
1392.35	0.237557
1391.46	0.23791
1390.57	0.237999
1389.68	0.238291
1388.8	0.237975
1387.91	0.237704
1387.02	0.237199
1386.13	0.236404
1385.24	0.235592
1384.36	0.235272
1383.47	0.234937
1382.58	0.234912
1381.69	0.234188
1380.8	0.233844
1379.91	0.233612
1379.02	0.233368
1378.13	0.233416
1377.24	0.233196
1376.35	0.233227
1375.46	0.233421
1374.57	0.233018
1373.68	0.233071
1372.79	0.233612
1371.9	0.233812
1371.01	0.234104
1370.12	0.234059
1369.23	0.234296
1368.33	0.234777
1367.44	0.234862
1366.55	0.23483
1365.66	0.234857
1364.77	0.234701
1363.88	0.234335
1362.98	0.234188
1362.09	0.234427
1361.2	0.234592
1360.31	0.234743
1359.41	0.234398
1358.52	0.23444
1357.63	0.234277
1356.73	0.233591
1355.84	0.233558
1354.95	0.233427
1354.05	0.233206
1353.16	0.233366
1352.26	0.233231
1351.37	0.23346
1350.47	0.233608
1349.58	0.233207
1348.69	0.232842
1347.79	0.233094
1346.9	0.232831
1346	0.232559
1345.1	0.232243
1344.21	0.232457
1343.31	0.232567
1342.42	0.232249
1341.52	0.232132
1340.63	0.232469
1339.73	0.232118
1338.83	0.231682
1337.94	0.231701
1337.04	0.232124
1336.14	0.232139
1335.25	0.232326
1334.35	0.232233
1333.45	0.231926
1332.55	0.231508
1331.66	0.231081
1330.76	0.230901
1329.86	0.23099
1328.96	0.230977
1328.06	0.231082
1327.16	0.230823
1326.27	0.230648
1325.37	0.230586
1324.47	0.230691
1323.57	0.230421
1322.67	0.230344
1321.77	0.230615
1320.87	0.230386
1319.97	0.230312
1319.07	0.230265
1318.17	0.230174
1317.27	0.230077
1316.37	0.230003
1315.47	0.229944
1314.57	0.230113
1313.67	0.230005
1312.77	0.229999
1311.86	0.229751
1310.96	0.229245
1310.06	0.229478
1309.16	0.229348
1308.26	0.229481
1307.36	0.229792
1306.45	0.230748
1305.55	0.232005
1304.65	0.233375
1303.75	0.234728
1302.84	0.236613
1301.94	0.237781
1301.04	0.239113
1300.13	0.240177
1299.23	0.241225
1298.33	0.242105
1297.42	0.242516
1296.52	0.242101
1295.62	0.241537
1294.71	0.240647
1293.81	0.23916
1292.9	0.237681
1292	0.236319
1291.09	0.234859
1290.19	0.23367
1289.28	0.231839
1288.38	0.230503
1287.47	0.229475
1286.57	0.228508
1285.66	0.228566
1284.75	0.228964
1283.85	0.229367
1282.94	0.230254
1282.04	0.230349
1281.13	0.230578
1280.22	0.230785
1279.32	0.230897
1278.41	0.231381
1277.5	0.231701
1276.59	0.232158
1275.69	0.233053
1274.78	0.233464
1273.87	0.2343
1272.96	0.235059
1272.05	0.236166
1271.15	0.238369
1270.24	0.240928
1269.33	0.24309
1268.42	0.245249
1267.51	0.246915
1266.6	0.248317
1265.69	0.249238
1264.78	0.249748
1263.87	0.251094
1262.96	0.251872
1262.05	0.251849
1261.14	0.251767
1260.23	0.251916
1259.32	0.251821
1258.41	0.251809
1257.5	0.251178
1256.59	0.250701
1255.68	0.249832
1254.77	0.248465
1253.86	0.247103
1252.95	0.245564
1252.03	0.243702
1251.12	0.24215
1250.21	0.240259
1249.3	0.238544
1248.39	0.2374
1247.47	0.236342
1246.56	0.235943
1245.65	0.23535
1244.73	0.234875
1243.82	0.234579
1242.91	0.234089
1241.99	0.233667
1241.08	0.23312
1240.17	0.232631
1239.25	0.232532
1238.34	0.23232
1237.42	0.232085
1236.51	0.23205
1235.6	0.232139
1234.68	0.23201
1233.77	0.231605
1232.85	0.2315
1231.94	0.231976
1231.02	0.232286
1230.1	0.232555
1229.19	0.232868
1228.27	0.232415
1227.36	0.232232
1226.44	0.231329
1225.52	0.230851
1224.61	0.230705
1223.69	0.230299
1222.77	0.230626
1221.86	0.231089
1220.94	0.231202
1220.02	0.231671
1219.11	0.231372
1218.19	0.23122
1217.27	0.230894
1216.35	0.23047
1215.43	0.230721
1214.52	0.231305
1213.6	0.231862
1212.68	0.23184
1211.76	0.23173
1210.84	0.231686
1209.92	0.231523
1209	0.231379
1208.08	0.231189
1207.16	0.231681
1206.24	0.232239
1205.32	0.232425
1204.4	0.232609
1203.48	0.233013
1202.56	0.233283
1201.64	0.233435
1200.72	0.233342
1199.8	0.233606
1198.88	0.23453
1197.96	0.235517
1197.04	0.236254
1196.11	0.237289
1195.19	0.238928
1194.27	0.240508
1193.35	0.242784
1192.43	0.245994
1191.5	0.251706
1190.58	0.258954
1189.66	0.268357
1188.74	0.280111
1187.81	0.294131
1186.89	0.309693
1185.97	0.32656
1185.04	0.342713
1184.12	0.357663
1183.2	0.368913
1182.27	0.376574
1181.35	0.379198
1180.42	0.376856
1179.5	0.370333
1178.57	0.359967
1177.65	0.34651
1176.72	0.331157
1175.8	0.314737
1174.87	0.298425
1173.95	0.283356
1173.02	0.270242
1172.1	0.259895
1171.17	0.251854
1170.24	0.246166
1169.32	0.24258
1168.39	0.240506
1167.46	0.239241
1166.54	0.23872
1165.61	0.238
1164.68	0.237615
1163.76	0.237121
1162.83	0.236335
1161.9	0.236293
1160.97	0.236422
1160.05	0.236749
1159.12	0.23697
1158.19	0.236801
1157.26	0.236582
1156.33	0.236693
1155.4	0.237164
1154.47	0.238011
1153.55	0.238575
1152.62	0.238932
1151.69	0.239126
1150.76	0.239515
1149.83	0.240277
1148.9	0.241347
1147.97	0.242872
1147.04	0.244528
1146.11	0.246377
1145.18	0.247489
1144.25	0.248525
1143.31	0.250083
1142.38	0.251986
1141.45	0.253888
1140.52	0.256368
1139.59	0.259035
1138.66	0.261827
1137.73	0.264175
1136.79	0.266574
1135.86	0.268405
1134.93	0.270129
1134	0.272195
1133.06	0.274677
1132.13	0.277435
1131.2	0.280132
1130.26	0.283059
1129.33	0.286002
1128.4	0.288455
1127.46	0.290787
1126.53	0.293586
1125.6	0.297116
1124.66	0.301032
1123.73	0.305251
1122.79	0.309528
1121.86	0.314014
1120.92	0.319556
1119.99	0.325035
1119.05	0.330014
1118.12	0.334974
1117.18	0.339109
1116.25	0.342352
1115.31	0.345156
1114.37	0.347713
1113.44	0.35111
1112.5	0.354716
1111.56	0.358589
1110.63	0.364227
1109.69	0.369977
1108.75	0.376167
1107.82	0.382696
1106.88	0.389242
1105.94	0.396725
1105	0.405232
1104.07	0.414429
1103.13	0.425477
1102.19	0.437082
1101.25	0.449327
1100.31	0.461389
1099.37	0.473489
1098.44	0.485564
1097.5	0.496451
1096.56	0.505528
1095.62	0.51271
1094.68	0.517447
1093.74	0.519982
1092.8	0.522005
1091.86	0.526352
1090.92	0.536346
1089.98	0.555315
1089.04	0.586901
1088.1	0.724776
1087.16	0.749797
1086.21	0.683716
1085.27	0.550985
1084.33	0.380262
1083.39	0.204264
1082.45	0.0618308
1081.51	0
1080.56	0.0760959
1079.62	0.0760338
1078.68	0.0759716
1077.74	0.0759094
1076.79	0.0758473
1075.85	0.0757851
1074.91	0.0757229
1073.97	0.0756607
1073.02	0.00406127
1072.08	0.0618774
1071.13	0.196944
1070.19	0.362377
1069.25	0.521535
1068.3	0.641972
1067.36	0.696302
1066.41	0.661659
1065.47	0.517175
1064.52	0.469738
1063.58	0.433317
1062.63	0.404129
1061.69	0.382672
1060.74	0.365696
1059.8	0.35217
1058.85	0.341255
1057.9	0.331454
1056.96	0.322911
1056.01	0.314735
1055.07	0.307152
1054.12	0.30031
1053.17	0.293435
1052.22	0.287058
1051.28	0.281875
1050.33	0.277063
1049.38	0.27316
1048.43	0.269824
1047.49	0.26693
1046.54	0.264008
1045.59	0.261258
1044.64	0.25847
1043.69	0.256755
1042.74	0.254991
1041.79	0.253384
1040.85	0.251931
1039.9	0.250572
1038.95	0.249203
1038	0.24812
1037.05	0.247104
1036.1	0.24636
1035.15	0.245764
1034.2	0.244854
1033.25	0.243664
1032.3	0.242122
1031.34	0.240856
1030.39	0.24006
1029.44	0.239441
1028.49	0.23891
1027.54	0.23865
1026.59	0.237993
1025.64	0.237564
1024.68	0.237091
1023.73	0.23714
1022.78	0.236945
1021.83	0.237069
1020.87	0.237491
1019.92	0.238646
1018.97	0.240342
1018.01	0.243025
1017.06	0.246839
1016.11	0.25149
1015.15	0.255991
1014.2	0.260156
1013.25	0.262144
1012.29	0.262129
1011.34	0.25977
1010.38	0.255238
1009.43	0.250256
1008.47	0.245443
1007.52	0.241756
1006.56	0.239188
1005.61	0.237469
1004.65	0.236763
1003.7	0.236407
1002.74	0.236067
1001.78	0.235836
1000.83	0.235724
999.871	0.235585
998.914	0.235172
997.957	0.234521
997	0.233536
996.043	0.232554
995.086	0.231737
994.128	0.231244
993.17	0.230923
992.212	0.230674
991.254	0.230621
990.296	0.230524
989.338	0.230114
988.379	0.230009
987.421	0.229723
986.462	0.229421
985.503	0.229161
984.543	0.229196
983.584	0.229305
982.624	0.229649
981.665	0.229833
980.705	0.229896
979.744	0.229666
978.784	0.229185
977.824	0.228894
976.863	0.228995
975.902	0.229147
974.941	0.229568
973.98	0.229832
973.019	0.229825
972.057	0.22992
971.096	0.229875
970.134	0.229893
969.172	0.230111
968.21	0.230736
967.247	0.23139
966.285	0.231636
965.322	0.232053
964.359	0.232384
963.396	0.232821
962.433	0.233138
961.47	0.233202
960.506	0.233439
959.542	0.233464
958.578	0.232833
957.614	0.232468
956.65	0.232149
955.686	0.232185
954.721	0.232146
953.756	0.232178
952.791	0.232431
951.826	0.232616
950.861	0.232074
949.895	0.231994
948.93	0.232269
947.964	0.232457
946.998	0.232299
946.032	0.232296
945.065	0.23279
944.099	0.232743
943.132	0.232283
942.165	0.232528
941.198	0.23245
940.231	0.232025
939.264	0.231135
938.296	0.230662
937.328	0.230879
936.361	0.230484
935.392	0.229987
934.424	0.229961
933.456	0.230002
932.487	0.229999
931.518	0.22951
930.549	0.229353
929.58	0.229212
928.611	0.228847
927.641	0.228162
926.672	0.228142
925.702	0.228385
924.732	0.228538
923.762	0.228207
922.791	0.228076
921.821	0.228179
920.85	0.228006
919.879	0.227756
918.908	0.228165
917.937	0.22825
916.966	0.228305
915.994	0.228172
915.022	0.228018
914.05	0.227872
913.078	0.227554
912.106	0.22741
911.134	0.227617
910.161	0.2279
909.188	0.227939
908.215	0.227936
907.242	0.227304
906.269	0.227127
905.295	0.227678
904.321	0.2273
903.348	0.227171
902.373	0.226791
901.399	0.226713
900.425	0.22677
899.45	0.226493
898.476	0.226613
897.501	0.227061
896.526	0.227024
895.55	0.227135
894.575	0.227364
893.599	0.227792
892.623	0.227635
891.647	0.227047
890.671	0.226215
889.695	0.226105
888.718	0.226326
887.742	0.226403
886.765	0.227391
885.788	0.227627
884.811	0.227732
883.833	0.227693
882.856	0.227239
881.878	0.227232
880.9	0.227468
879.922	0.227035
878.944	0.227702
877.965	0.227763
876.987	0.228522
876.008	0.228617
875.029	0.228331
874.05	0.228524
873.07	0.228762
872.091	0.228159
871.111	0.22822
870.131	0.22785
869.151	0.227905
868.171	0.227427
867.191	0.227439
866.21	0.227812
865.229	0.228256
864.248	0.228742
863.267	0.22951
862.286	0.229506
861.304	0.22945
860.323	0.229532
859.341	0.229333
858.359	0.229254
857.377	0.229573
856.394	0.230274
855.412	0.230385
854.429	0.230022
853.446	0.23003
852.463	0.229921
851.48	0.229561
850.496	0.229479
849.513	0.229825
848.529	0.23031
847.545	0.230295
846.561	0.230371
845.577	0.230706
844.592	0.230737
843.607	0.231283
842.623	0.231572
841.638	0.232167
840.652	0.232867
839.667	0.233782
838.681	0.234481
837.696	0.235586
836.71	0.236632
835.724	0.237623
834.737	0.238448
833.751	0.239457
832.764	0.24024
831.777	0.24084
830.79	0.241291
829.803	0.2419
828.816	0.242433
827.828	0.242557
826.841	0.242825
825.853	0.243158
824.865	0.243391
823.876	0.243185
822.888	0.242856
821.899	0.242197
820.911	0.24204
819.922	0.241611
818.932	0.241247
817.943	0.240979
816.954	0.240597
815.964	0.240205
814.974	0.239015
813.984	0.238248
812.994	0.23817
812.003	0.237598
811.013	0.236936
810.022	0.236307
809.031	0.235214
808.04	0.234906
807.048	0.234613
806.057	0.234957
805.065	0.235163
804.073	0.235145
803.081	0.234474
802.089	0.233846
801.097	0.233299
800.104	0.232873
799.111	0.232421
798.118	0.232018
797.125	0.23192
796.132	0.231927
795.139	0.231792
794.145	0.231591
793.151	0.232106
792.157	0.232144
791.163	0.231865
790.168	0.232073
789.174	0.232662
788.179	0.23287
787.184	0.232846
786.189	0.232485
785.194	0.23234
784.198	0.23197
783.203	0.231907
782.207	0.232349
781.211	0.232537
780.215	0.232636
779.218	0.232735
778.222	0.232776
777.225	0.232774
776.228	0.232714
775.231	0.233222
774.234	0.23326
773.236	0.233168
772.238	0.23289
771.241	0.233024
770.243	0.233153
769.244	0.233574
768.246	0.233914
767.247	0.234415
766.249	0.234332
765.25	0.234736
764.251	0.234531
763.251	0.234839
762.252	0.235626
761.252	0.23659
760.252	0.237835
759.252	0.238859
758.252	0.240403
757.252	0.242486
756.251	0.245657
755.25	0.250783
754.249	0.259142
753.248	0.27168
752.247	0.289883
751.246	0.313017
750.244	0.341805
749.242	0.374816
748.24	0.412036
747.238	0.451969
746.235	0.492083
745.233	0.529464
744.23	0.559925
743.227	0.578105
742.224	0.580923
741.221	0.567368
740.217	0.539229
739.213	0.49966
738.209	0.454696
737.205	0.40875
736.201	0.366362
735.197	0.330265
734.192	0.301745
733.187	0.281064
732.182	0.266644
731.177	0.256442
730.172	0.250137
729.166	0.245682
728.161	0.242328
727.155	0.239838
726.149	0.238392
725.142	0.237391
724.136	0.236418
723.129	0.236305
722.123	0.236639
721.116	0.237682
720.108	0.238552
719.101	0.240344
718.093	0.243114
717.086	0.245862
716.078	0.248558
715.07	0.251453
714.061	0.253449
713.053	0.254897
712.044	0.255559
711.035	0.256523
710.026	0.257301
709.017	0.258262
708.008	0.258252
706.998	0.257675
705.988	0.256458
704.979	0.25404
703.968	0.25124
702.958	0.248526
701.948	0.245803
700.937	0.243979
699.926	0.242158
698.915	0.241274
697.904	0.240688
696.892	0.239749
695.881	0.238864
694.869	0.237436
693.857	0.235945
692.845	0.234734
691.832	0.234067
690.82	0.233275
689.807	0.232615
688.794	0.232424
687.781	0.232142
686.768	0.231447
685.754	0.230932
684.741	0.230675
683.727	0.230657
682.713	0.230055
681.698	0.230091
680.684	0.230255
679.669	0.23022
678.655	0.229898
677.64	0.230386
676.625	0.230929
675.609	0.230842
674.594	0.230624
673.578	0.230738
672.562	0.230802
671.546	0.230452
670.53	0.229761
669.513	0.230066
668.497	0.230108
667.48	0.229824
666.463	0.229897
665.446	0.230112
664.428	0.230295
663.411	0.230284
662.393	0.229565
661.375	0.229674
660.357	0.229112
659.338	0.228871
658.32	0.229006
657.301	0.229069
656.282	0.229204
655.263	0.229515
654.244	0.229066
653.224	0.229159
652.205	0.228701
651.185	0.22904
650.165	0.229387
649.145	0.229605
648.124	0.229649
647.104	0.229475
646.083	0.22924
645.062	0.229514
644.041	0.229761
643.02	0.230943
641.998	0.232138
640.976	0.232964
639.954	0.233244
638.932	0.23387
637.91	0.236416
636.888	0.245268
635.865	0.263271
634.842	0.293228
633.819	0.331167
632.796	0.370132
631.772	0.398802
630.749	0.408384
629.725	0.396134
628.701	0.366673
627.677	0.329945
626.653	0.295416
625.628	0.269207
624.603	0.253235
623.578	0.244321
622.553	0.240024
621.528	0.237387
620.503	0.234914
619.477	0.233756
618.451	0.233471
617.425	0.23356
616.399	0.233495
615.372	0.23336
614.346	0.233754
613.319	0.233326
612.292	0.232663
611.265	0.232259
610.237	0.232364
609.21	0.232379
608.182	0.232249
607.154	0.232286
606.126	0.232591
605.098	0.232305
604.069	0.23232
603.04	0.232438
602.011	0.232215
600.982	0.232168
599.953	0.231617
598.924	0.23168
597.894	0.231767
596.864	0.231757
595.834	0.232145
594.804	0.232313
593.773	0.23248
592.743	0.232705
591.712	0.232339
590.681	0.232198
589.65	0.231766
588.619	0.231671
587.587	0.231646
586.555	0.231182
585.523	0.231977
584.491	0.232228
583.459	0.232442
582.426	0.232433
581.394	0.232583
580.361	0.232895
579.328	0.232811
578.294	0.232418
577.261	0.233328
576.227	0.233624
575.193	0.234665
574.159	0.236037
573.125	0.238169
572.091	0.240291
571.056	0.242652
570.021	0.245141
568.986	0.247783
567.951	0.249889
566.916	0.251757
565.88	0.252744
564.844	0.253534
563.808	0.25414
562.772	0.254327
561.736	0.254559
560.699	0.254845
559.663	0.255355
558.626	0.255966
557.589	0.255964
556.551	0.255823
555.514	0.256175
554.476	0.256237
553.438	0.256241
552.4	0.256399
551.362	0.25641
550.323	0.256533
549.285	0.256021
548.246	0.254563
547.207	0.25347
546.168	0.252542
545.128	0.251359
544.089	0.250018
543.049	0.248725
542.009	0.247433
540.969	0.245889
539.928	0.243982
538.888	0.243014
537.847	0.2421
536.806	0.241464
535.765	0.240915
534.723	0.241247
533.682	0.241366
532.64	0.241437
531.598	0.241728
530.556	0.241979
529.514	0.24159
528.471	0.241368
527.429	0.241483
526.386	0.24169
525.343	0.242088
524.299	0.242357
523.256	0.243058
522.212	0.242877
521.168	0.242591
520.124	0.242172
519.08	0.24198
518.036	0.241469
516.991	0.241161
515.946	0.241089
514.901	0.241071
513.856	0.240816
512.81	0.240422
511.765	0.240084
510.719	0.239979
509.673	0.239498
508.627	0.23884
507.58	0.238209
506.534	0.237622
505.487	0.237454
504.44	0.237558
503.393	0.237285
502.345	0.237519
501.298	0.236891
500.25	0.236434
499.202	0.235666
498.154	0.235252
497.106	0.235415
496.057	0.235542
495.008	0.235078
493.96	0.234959
492.91	0.234507
491.861	0.234345
490.812	0.234189
489.762	0.234268
488.712	0.23497
487.662	0.23481
486.612	0.234576
485.561	0.234323
484.51	0.234276
483.46	0.234382
482.408	0.234245
481.357	0.233902
480.306	0.233034
479.254	0.231405
478.202	0.230197
477.15	0.229593
476.098	0.229328
475.045	0.229369
473.993	0.229558
472.94	0.22978
471.887	0.229479
470.834	0.229188
469.78	0.22896
468.727	0.229195
467.673	0.229407
466.619	0.229852
465.565	0.230274
464.51	0.231061
463.456	0.231422
462.401	0.231555
461.346	0.231768
460.291	0.231808
459.235	0.232731
458.18	0.234456
457.124	0.235644
456.068	0.237068
455.012	0.238591
453.955	0.240341
452.899	0.241625
451.842	0.242366
450.785	0.244478
449.728	0.246758
448.67	0.248596
447.613	0.250332
446.555	0.252288
445.497	0.253758
444.439	0.253859
443.38	0.253738
442.322	0.254369
441.263	0.25506
440.204	0.255221
439.145	0.255381
438.086	0.255263
437.026	0.255312
435.966	0.254978
434.907	0.254414
433.846	0.254627
432.786	0.255337
431.725	0.254999
430.665	0.254753
429.604	0.254726
428.543	0.254801
427.481	0.254569
426.42	0.253939
425.358	0.254144
424.296	0.254622
423.234	0.254379
422.172	0.25477
421.109	0.255405
420.047	0.25572
418.984	0.256211
417.92	0.256517
416.857	0.257909
415.794	0.259086
414.73	0.260342
413.666	0.26223
412.602	0.264193
411.538	0.266698
410.473	0.269243
409.408	0.271481
408.343	0.273673
407.278	0.274322
406.213	0.274061
405.148	0.273349
404.082	0.271774
403.016	0.270101
401.95	0.268292
400.883	0.265886
399.817	0.263678
398.75	0.260912
397.683	0.258048
396.616	0.255355
395.549	0.252516
394.481	0.250154
393.414	0.248355
392.346	0.246471
391.278	0.245406
390.209	0.244796
389.141	0.243577
388.072	0.2424
387.003	0.241206
385.934	0.240307
384.865	0.239655
383.795	0.239172
382.726	0.238923
381.656	0.238928
380.586	0.238135
379.515	0.237811
378.445	0.23746
377.374	0.2376
376.303	0.23751
375.232	0.23735
374.161	0.237287
373.089	0.23704
372.017	0.236813
370.946	0.236531
369.873	0.236433
368.801	0.23698
367.729	0.236624
366.656	0.236487
365.583	0.236084
364.51	0.235926
363.436	0.234981
362.363	0.234016
361.289	0.233219
360.215	0.233009
359.141	0.23224
358.067	0.232169
356.992	0.23213
355.917	0.232978
354.842	0.233123
353.767	0.234142
352.692	0.235459
351.616	0.236267
350.541	0.236734
349.465	0.236952
348.388	0.23766
347.312	0.238799
346.236	0.239304
345.159	0.239984
344.082	0.241667
343.005	0.242081
341.927	0.242744
340.85	0.24326
339.772	0.244812
338.694	0.246169
337.616	0.247225
336.537	0.248198
335.459	0.249824
334.38	0.251161
333.301	0.252655
332.222	0.254166
331.142	0.255849
330.063	0.257278
328.983	0.258862
327.903	0.260854
326.823	0.263199
325.742	0.265587
324.662	0.267298
323.581	0.269249
322.5	0.270615
321.418	0.27227
320.337	0.274269
319.255	0.276893
318.173	0.279286
317.091	0.280539
316.009	0.281359
314.927	0.282389
313.844	0.282789
312.761	0.282889
311.678	0.282817
310.595	0.282921
309.511	0.282488
308.428	0.281809
307.344	0.281348
306.26	0.28112
305.175	0.280623
304.091	0.279377
303.006	0.278434
301.921	0.277371
300.836	0.275921
299.751	0.274725
298.665	0.273579
297.579	0.27336
296.493	0.272574
295.407	0.271331
294.321	0.271202
293.234	0.270592
292.148	0.270176
291.061	0.270099
289.974	0.270827
288.886	0.272218
287.799	0.272581
286.711	0.273207
285.623	0.274601
284.535	0.275712
283.446	0.276839
282.358	0.277635
281.269	0.278354
280.18	0.279355
279.09	0.280089
278.001	0.280882
276.911	0.281924
275.822	0.282843
274.731	0.283447
273.641	0.283197
272.551	0.283792
271.46	0.284975
270.369	0.285477
269.278	0.286301
268.187	0.287097
267.095	0.286963
266.004	0.287251
264.912	0.28746
263.82	0.288152
262.727	0.288508
261.635	0.288365
260.542	0.288223
259.449	0.28796
258.356	0.287492
257.262	0.28736
256.169	0.286948
255.075	0.286202
253.981	0.284986
252.887	0.283434
251.793	0.281297
250.698	0.279294
249.603	0.277147
248.508	0.274411
247.413	0.271574
246.317	0.26839
245.222	0.264454
244.126	0.260607
243.03	0.257215
241.934	0.254123
240.837	0.251431
239.741	0.249568
238.644	0.248408
237.547	0.247356
236.449	0.246529
235.352	0.245559
234.254	0.245481
233.156	0.244865
232.058	0.244294
230.96	0.244088
229.861	0.244564
228.762	0.24485
227.663	0.24511
226.564	0.246029
225.465	0.247031
224.365	0.247836
223.265	0.248061
222.165	0.248802
221.065	0.249917
219.965	0.250561
218.864	0.251628
217.763	0.253109
216.662	0.254269
215.561	0.255861
214.459	0.256694
213.358	0.257991
212.256	0.258867
211.154	0.259625
210.051	0.260997
208.949	0.26192
207.846	0.26337
206.743	0.264687
205.64	0.266171
204.537	0.267556
203.433	0.26856
202.329	0.269964
201.225	0.271819
200.121	0.273042
199.017	0.274648
197.912	0.275337
196.807	0.276523
195.702	0.276989
194.597	0.277429
193.491	0.278063
192.386	0.279666
191.28	0.281052
190.174	0.282994
189.067	0.284858
187.961	0.287623
186.854	0.288847
185.747	0.290777
184.64	0.292721
183.533	0.295684
182.425	0.298439
181.317	0.301945
180.209	0.306322
179.101	0.310684
177.993	0.314057
176.884	0.318626
175.775	0.323174
174.666	0.327982
173.557	0.332449
172.448	0.336674
171.338	0.340791
170.228	0.343498
169.118	0.345256
168.008	0.34594
166.897	0.345418
165.786	0.343964
164.675	0.341381
163.564	0.33833
162.453	0.335886
161.341	0.333761
160.229	0.332474
159.117	0.331866
158.005	0.332056
156.893	0.333108
155.78	0.334976
154.667	0.337901
153.554	0.341358
152.441	0.345019
151.327	0.348988
150.214	0.353643
149.1	0.358122
147.986	0.363506
146.871	0.369049
145.757	0.375191
144.642	0.380913
143.527	0.387393
142.412	0.394027
141.296	0.400322
140.181	0.406505
139.065	0.412688
137.949	0.419138
136.833	0.42589
135.716	0.432644
134.599	0.439694
133.482	0.44798
132.365	0.45598
131.248	0.464336
130.13	0.472387
129.013	0.48151
127.895	0.490504
126.777	0.499636
125.658	0.508502
124.54	0.51976
123.421	0.531048
122.302	0.541571
121.182	0.553312
120.063	0.5654
118.943	0.578158
117.823	0.591926
116.703	0.605725
115.583	0.619968
114.462	0.633924
113.342	0.645676
112.221	0.657258
111.1	0.666535
109.978	0.673609
108.857	0.679019
107.735	0.681453
106.613	0.681385
105.49	0.680854
104.368	0.678337
103.245	0.675732
102.122	0.673234
100.999	0.670883
