3801.25	0.264216
3800.75	0.264155
3800.24	0.26413
3799.74	0.264095
3799.23	0.264086
3798.73	0.264081
3798.22	0.264054
3797.72	0.263969
3797.21	0.263906
3796.71	0.263787
3796.2	0.263727
3795.69	0.263712
3795.19	0.263677
3794.68	0.263659
3794.18	0.263687
3793.67	0.263649
3793.16	0.263619
3792.66	0.263578
3792.15	0.263595
3791.65	0.263616
3791.14	0.263606
3790.63	0.263575
3790.13	0.263542
3789.62	0.26348
3789.11	0.263413
3788.61	0.26335
3788.1	0.2633
3787.59	0.263275
3787.09	0.263273
3786.58	0.263213
3786.07	0.263224
3785.56	0.263214
3785.06	0.263175
3784.55	0.263131
3784.04	0.263089
3783.53	0.263078
3783.03	0.263025
3782.52	0.262977
3782.01	0.262974
3781.5	0.262943
3780.99	0.262917
3780.49	0.262869
3779.98	0.262859
3779.47	0.262816
3778.96	0.262766
3778.45	0.262728
3777.95	0.26268
3777.44	0.262663
3776.93	0.262637
3776.42	0.262628
3775.91	0.262643
3775.4	0.262636
3774.89	0.262612
3774.39	0.262608
3773.88	0.262518
3773.37	0.26246
3772.86	0.262398
3772.35	0.262374
3771.84	0.262314
3771.33	0.262301
3770.82	0.262276
3770.31	0.262291
3769.8	0.262247
3769.29	0.26228
3768.78	0.26226
3768.27	0.262207
3767.76	0.262138
3767.25	0.262069
3766.74	0.262001
3766.23	0.26198
3765.72	0.261952
3765.21	0.26199
3764.7	0.261962
3764.19	0.261924
3763.68	0.26189
3763.17	0.261811
3762.66	0.261757
3762.15	0.261714
3761.64	0.261658
3761.13	0.261647
3760.62	0.261634
3760.11	0.261593
3759.6	0.261584
3759.08	0.26157
3758.57	0.261555
3758.06	0.261532
3757.55	0.261524
3757.04	0.261501
3756.53	0.261458
3756.02	0.261381
3755.5	0.261352
3754.99	0.261359
3754.48	0.26133
3753.97	0.261267
3753.46	0.26119
3752.95	0.261129
3752.43	0.261055
3751.92	0.261033
3751.41	0.261073
3750.9	0.261149
3750.38	0.261174
3749.87	0.261151
3749.36	0.261114
3748.85	0.261073
3748.33	0.260998
3747.82	0.260953
3747.31	0.260929
3746.8	0.260942
3746.28	0.260917
3745.77	0.26089
3745.26	0.260864
3744.74	0.260848
3744.23	0.260801
3743.72	0.260739
3743.2	0.260697
3742.69	0.260678
3742.18	0.2606
3741.66	0.26054
3741.15	0.260468
3740.64	0.260438
3740.12	0.260399
3739.61	0.260347
3739.09	0.260343
3738.58	0.260325
3738.07	0.260296
3737.55	0.260309
3737.04	0.260283
3736.52	0.260295
3736.01	0.260277
3735.49	0.260222
3734.98	0.260191
3734.46	0.260166
3733.95	0.26012
3733.43	0.260085
3732.92	0.260027
3732.4	0.259981
3731.89	0.259953
3731.37	0.259953
3730.86	0.259893
3730.34	0.259899
3729.83	0.25987
3729.31	0.259831
3728.8	0.259825
3728.28	0.259768
3727.77	0.259762
3727.25	0.259761
3726.74	0.259687
3726.22	0.259639
3725.7	0.259567
3725.19	0.259568
3724.67	0.259532
3724.16	0.259522
3723.64	0.259539
3723.12	0.259515
3722.61	0.259494
3722.09	0.25941
3721.57	0.259318
3721.06	0.259276
3720.54	0.259181
3720.02	0.259144
3719.51	0.259146
3718.99	0.259083
3718.47	0.259116
3717.96	0.259126
3717.44	0.259105
3716.92	0.259095
3716.4	0.259078
3715.89	0.259025
3715.37	0.258982
3714.85	0.25893
3714.33	0.258943
3713.82	0.258984
3713.3	0.258952
3712.78	0.258913
3712.26	0.258885
3711.75	0.258809
3711.23	0.258777
3710.71	0.258738
3710.19	0.258714
3709.67	0.258715
3709.15	0.258697
3708.64	0.25861
3708.12	0.258556
3707.6	0.258528
3707.08	0.258582
3706.56	0.258579
3706.04	0.25852
3705.52	0.258423
3705	0.258394
3704.49	0.258265
3703.97	0.25823
3703.45	0.258212
3702.93	0.258269
3702.41	0.258279
3701.89	0.258213
3701.37	0.25816
3700.85	0.258182
3700.33	0.258099
3699.81	0.258077
3699.29	0.258011
3698.77	0.258015
3698.25	0.258002
3697.73	0.257967
3697.21	0.257949
3696.69	0.257914
3696.17	0.257902
3695.65	0.257894
3695.13	0.257855
3694.61	0.257823
3694.09	0.257774
3693.57	0.257711
3693.05	0.257626
3692.53	0.257567
3692.01	0.257611
3691.49	0.257643
3690.96	0.257639
3690.44	0.25763
3689.92	0.257558
3689.4	0.257499
3688.88	0.25744
3688.36	0.257384
3687.84	0.257352
3687.32	0.257296
3686.79	0.257257
3686.27	0.257241
3685.75	0.257192
3685.23	0.257171
3684.71	0.257177
3684.19	0.257177
3683.66	0.257172
3683.14	0.257081
3682.62	0.257079
3682.1	0.256994
3681.57	0.256953
3681.05	0.256969
3680.53	0.256953
3680.01	0.256944
3679.48	0.256914
3678.96	0.256863
3678.44	0.256841
3677.92	0.256701
3677.39	0.256702
3676.87	0.256715
3676.35	0.25665
3675.82	0.256626
3675.3	0.256616
3674.78	0.256658
3674.25	0.25664
3673.73	0.256577
3673.21	0.256592
3672.68	0.25657
3672.16	0.256535
3671.64	0.256499
3671.11	0.256443
3670.59	0.256379
3670.06	0.25633
3669.54	0.256291
3669.02	0.25625
3668.49	0.256247
3667.97	0.256227
3667.44	0.256226
3666.92	0.256179
3666.39	0.256109
3665.87	0.256125
3665.34	0.256101
3664.82	0.256033
3664.29	0.255996
3663.77	0.255962
3663.24	0.255948
3662.72	0.25587
3662.19	0.255836
3661.67	0.255818
3661.14	0.255804
3660.62	0.255757
3660.09	0.255745
3659.57	0.255754
3659.04	0.255738
3658.52	0.255688
3657.99	0.255656
3657.46	0.255602
3656.94	0.255545
3656.41	0.255471
3655.89	0.255418
3655.36	0.255363
3654.83	0.255318
3654.31	0.255253
3653.78	0.25522
3653.25	0.255175
3652.73	0.255156
3652.2	0.25513
3651.67	0.255138
3651.15	0.255131
3650.62	0.255133
3650.09	0.255081
3649.57	0.255001
3649.04	0.254946
3648.51	0.254968
3647.99	0.254974
3647.46	0.254977
3646.93	0.25497
3646.4	0.254958
3645.88	0.254898
3645.35	0.254832
3644.82	0.25479
3644.29	0.254815
3643.76	0.25482
3643.24	0.254793
3642.71	0.254765
3642.18	0.254699
3641.65	0.254659
3641.12	0.254623
3640.6	0.254574
3640.07	0.254546
3639.54	0.254507
3639.01	0.254504
3638.48	0.254463
3637.95	0.254415
3637.42	0.254416
3636.9	0.254387
3636.37	0.254397
3635.84	0.254336
3635.31	0.254277
3634.78	0.25425
3634.25	0.254153
3633.72	0.254136
3633.19	0.254119
3632.66	0.25415
3632.13	0.254206
3631.6	0.254154
3631.07	0.254106
3630.54	0.254077
3630.01	0.254004
3629.48	0.253964
3628.95	0.253931
3628.42	0.253949
3627.89	0.253961
3627.36	0.253879
3626.83	0.253813
3626.3	0.253759
3625.77	0.253691
3625.24	0.253661
3624.71	0.253648
3624.18	0.253672
3623.65	0.253694
3623.12	0.253652
3622.59	0.253628
3622.06	0.253539
3621.52	0.253473
3620.99	0.253441
3620.46	0.253394
3619.93	0.253411
3619.4	0.253385
3618.87	0.253342
3618.34	0.253262
3617.8	0.253215
3617.27	0.253158
3616.74	0.253151
3616.21	0.25317
3615.68	0.253183
3615.15	0.253177
3614.61	0.253121
3614.08	0.253034
3613.55	0.25301
3613.02	0.252923
3612.48	0.2529
3611.95	0.252842
3611.42	0.252769
3610.89	0.252773
3610.35	0.252775
3609.82	0.252773
3609.29	0.252752
3608.75	0.252728
3608.22	0.252668
3607.69	0.252645
3607.16	0.25266
3606.62	0.252658
3606.09	0.252645
3605.56	0.252552
3605.02	0.252488
3604.49	0.252435
3603.95	0.252367
3603.42	0.252365
3602.89	0.252346
3602.35	0.252322
3601.82	0.252295
3601.29	0.25226
3600.75	0.252273
3600.22	0.252276
3599.68	0.252241
3599.15	0.252152
3598.61	0.252114
3598.08	0.252104
3597.54	0.252065
3597.01	0.252025
3596.47	0.251995
3595.94	0.251953
3595.41	0.251891
3594.87	0.251821
3594.34	0.251846
3593.8	0.251833
3593.26	0.251875
3592.73	0.251843
3592.19	0.251838
3591.66	0.251753
3591.12	0.251701
3590.59	0.251672
3590.05	0.251674
3589.52	0.251655
3588.98	0.25166
3588.44	0.251605
3587.91	0.251534
3587.37	0.251469
3586.84	0.251426
3586.3	0.251389
3585.76	0.251343
3585.23	0.251324
3584.69	0.251276
3584.15	0.251261
3583.62	0.251208
3583.08	0.251195
3582.54	0.251162
3582.01	0.251116
3581.47	0.251108
3580.93	0.251081
3580.4	0.251035
3579.86	0.250971
3579.32	0.250918
3578.78	0.250856
3578.25	0.250866
3577.71	0.250862
3577.17	0.250925
3576.63	0.25089
3576.1	0.250883
3575.56	0.250785
3575.02	0.250741
3574.48	0.25071
3573.94	0.25071
3573.41	0.250712
3572.87	0.250729
3572.33	0.250641
3571.79	0.250619
3571.25	0.250483
3570.71	0.250426
3570.17	0.25039
3569.64	0.250353
3569.1	0.250418
3568.56	0.250439
3568.02	0.250415
3567.48	0.250403
3566.94	0.250331
3566.4	0.250321
3565.86	0.250256
3565.32	0.250152
3564.78	0.250179
3564.24	0.250145
3563.71	0.250087
3563.17	0.249989
3562.63	0.249958
3562.09	0.249959
3561.55	0.249928
3561.01	0.2499
3560.47	0.249915
3559.93	0.249908
3559.39	0.249893
3558.85	0.249836
3558.3	0.249831
3557.76	0.249766
3557.22	0.249702
3556.68	0.249662
3556.14	0.249581
3555.6	0.249549
3555.06	0.249544
3554.52	0.249547
3553.98	0.249521
3553.44	0.249473
3552.9	0.249442
3552.36	0.249418
3551.81	0.249362
3551.27	0.249335
3550.73	0.2493
3550.19	0.249268
3549.65	0.249215
3549.11	0.249193
3548.56	0.249128
3548.02	0.249067
3547.48	0.249038
3546.94	0.249038
3546.4	0.248997
3545.85	0.248976
3545.31	0.248952
3544.77	0.248966
3544.23	0.248933
3543.68	0.248917
3543.14	0.248934
3542.6	0.248911
3542.06	0.248859
3541.51	0.248813
3540.97	0.248727
3540.43	0.248729
3539.88	0.248733
3539.34	0.24869
3538.8	0.248655
3538.26	0.248655
3537.71	0.248617
3537.17	0.248567
3536.62	0.248526
3536.08	0.248517
3535.54	0.248461
3534.99	0.248356
3534.45	0.248302
3533.91	0.248269
3533.36	0.248245
3532.82	0.24828
3532.27	0.248279
3531.73	0.248304
3531.18	0.248249
3530.64	0.248189
3530.1	0.248123
3529.55	0.248017
3529.01	0.248008
3528.46	0.248013
3527.92	0.247979
3527.37	0.247972
3526.83	0.247904
3526.28	0.247834
3525.74	0.247788
3525.19	0.247736
3524.65	0.247721
3524.1	0.247726
3523.56	0.247733
3523.01	0.247725
3522.46	0.247687
3521.92	0.247609
3521.37	0.247603
3520.83	0.247588
3520.28	0.247555
3519.73	0.247514
3519.19	0.247508
3518.64	0.247504
3518.1	0.24745
3517.55	0.247366
3517	0.247352
3516.46	0.247346
3515.91	0.247324
3515.36	0.247266
3514.82	0.247272
3514.27	0.247232
3513.72	0.247174
3513.18	0.247102
3512.63	0.247028
3512.08	0.246969
3511.53	0.246926
3510.99	0.246868
3510.44	0.24686
3509.89	0.24683
3509.34	0.246854
3508.8	0.246842
3508.25	0.246822
3507.7	0.246808
3507.15	0.246775
3506.61	0.24674
3506.06	0.246701
3505.51	0.246645
3504.96	0.246662
3504.41	0.246635
3503.86	0.246598
3503.32	0.246573
3502.77	0.246552
3502.22	0.246524
3501.67	0.246467
3501.12	0.24643
3500.57	0.246453
3500.02	0.246421
3499.47	0.246387
3498.93	0.246325
3498.38	0.246286
3497.83	0.24623
3497.28	0.246182
3496.73	0.246183
3496.18	0.246169
3495.63	0.246149
3495.08	0.246082
3494.53	0.245994
3493.98	0.24595
3493.43	0.245888
3492.88	0.245814
3492.33	0.245764
3491.78	0.245672
3491.23	0.245671
3490.68	0.245667
3490.13	0.245719
3489.58	0.245784
3489.03	0.245817
3488.48	0.245827
3487.93	0.245757
3487.37	0.245624
3486.82	0.245531
3486.27	0.245472
3485.72	0.245454
3485.17	0.245455
3484.62	0.245446
3484.07	0.245482
3483.52	0.245462
3482.97	0.245404
3482.41	0.245361
3481.86	0.245327
3481.31	0.245303
3480.76	0.245232
3480.21	0.245219
3479.65	0.24526
3479.1	0.245214
3478.55	0.245223
3478	0.245167
3477.45	0.245131
3476.89	0.245039
3476.34	0.244929
3475.79	0.244968
3475.24	0.244968
3474.68	0.244956
3474.13	0.244939
3473.58	0.244848
3473.02	0.244777
3472.47	0.244701
3471.92	0.244605
3471.37	0.244612
3470.81	0.244642
3470.26	0.244654
3469.71	0.244615
3469.15	0.244571
3468.6	0.244552
3468.04	0.244534
3467.49	0.244494
3466.94	0.24443
3466.38	0.244395
3465.83	0.244273
3465.28	0.244203
3464.72	0.244119
3464.17	0.244167
3463.61	0.244179
3463.06	0.244234
3462.5	0.24417
3461.95	0.244181
3461.39	0.244094
3460.84	0.244022
3460.28	0.243949
3459.73	0.243974
3459.17	0.243995
3458.62	0.244051
3458.06	0.243971
3457.51	0.243988
3456.95	0.243917
3456.4	0.243828
3455.84	0.243741
3455.29	0.24369
3454.73	0.243653
3454.18	0.243658
3453.62	0.243595
3453.06	0.243641
3452.51	0.243619
3451.95	0.243547
3451.4	0.243515
3450.84	0.243484
3450.28	0.243438
3449.73	0.243391
3449.17	0.243405
3448.61	0.243389
3448.06	0.243334
3447.5	0.243264
3446.94	0.243225
3446.39	0.243216
3445.83	0.243183
3445.27	0.243184
3444.72	0.243198
3444.16	0.243119
3443.6	0.243101
3443.04	0.243036
3442.49	0.242979
3441.93	0.242959
3441.37	0.242938
3440.81	0.242894
3440.26	0.242866
3439.7	0.242815
3439.14	0.242775
3438.58	0.242745
3438.02	0.242719
3437.47	0.242648
3436.91	0.24265
3436.35	0.242613
3435.79	0.242671
3435.23	0.242668
3434.67	0.242621
3434.11	0.242639
3433.56	0.242567
3433	0.242463
3432.44	0.242463
3431.88	0.242444
3431.32	0.242427
3430.76	0.242363
3430.2	0.242327
3429.64	0.242294
3429.08	0.242233
3428.52	0.242227
3427.96	0.242251
3427.4	0.242281
3426.84	0.242247
3426.28	0.24218
3425.72	0.242133
3425.16	0.242062
3424.6	0.242046
3424.04	0.242007
3423.48	0.241982
3422.92	0.24197
3422.36	0.241888
3421.8	0.241864
3421.24	0.241829
3420.68	0.241793
3420.12	0.241805
3419.56	0.241746
3419	0.241723
3418.44	0.241676
3417.88	0.241575
3417.32	0.241545
3416.75	0.241514
3416.19	0.241471
3415.63	0.241437
3415.07	0.241403
3414.51	0.241393
3413.95	0.241308
3413.38	0.241212
3412.82	0.24116
3412.26	0.241112
3411.7	0.241081
3411.14	0.241096
3410.57	0.241119
3410.01	0.24115
3409.45	0.241163
3408.89	0.241186
3408.32	0.241175
3407.76	0.24111
3407.2	0.241065
3406.64	0.241006
3406.07	0.240952
3405.51	0.240885
3404.95	0.240871
3404.38	0.240834
3403.82	0.240789
3403.26	0.240754
3402.69	0.240695
3402.13	0.24066
3401.57	0.240645
3401	0.240609
3400.44	0.240609
3399.88	0.240577
3399.31	0.240547
3398.75	0.240547
3398.18	0.240513
3397.62	0.24048
3397.06	0.240483
3396.49	0.240438
3395.93	0.240438
3395.36	0.240397
3394.8	0.240381
3394.23	0.24037
3393.67	0.240338
3393.1	0.240264
3392.54	0.240223
3391.97	0.240137
3391.41	0.24011
3390.84	0.240047
3390.28	0.240017
3389.71	0.239966
3389.15	0.239944
3388.58	0.239894
3388.02	0.239882
3387.45	0.239931
3386.89	0.239939
3386.32	0.239916
3385.75	0.239898
3385.19	0.239842
3384.62	0.239794
3384.06	0.239699
3383.49	0.239674
3382.92	0.239644
3382.36	0.239569
3381.79	0.23952
3381.22	0.239474
3380.66	0.2394
3380.09	0.239356
3379.52	0.239332
3378.96	0.239343
3378.39	0.239318
3377.82	0.239337
3377.26	0.23936
3376.69	0.23933
3376.12	0.23924
3375.55	0.239187
3374.99	0.239136
3374.42	0.239049
3373.85	0.238999
3373.28	0.239049
3372.72	0.239065
3372.15	0.239046
3371.58	0.238994
3371.01	0.238968
3370.44	0.238904
3369.88	0.238826
3369.31	0.238814
3368.74	0.238829
3368.17	0.238807
3367.6	0.23877
3367.03	0.23872
3366.46	0.238714
3365.9	0.238697
3365.33	0.238653
3364.76	0.238645
3364.19	0.238605
3363.62	0.238585
3363.05	0.238542
3362.48	0.238514
3361.91	0.238438
3361.34	0.238343
3360.77	0.238289
3360.2	0.238282
3359.63	0.23822
3359.06	0.238233
3358.49	0.238293
3357.92	0.238321
3357.35	0.238259
3356.78	0.238195
3356.21	0.238197
3355.64	0.238144
3355.07	0.238043
3354.5	0.238018
3353.93	0.238024
3353.36	0.237993
3352.79	0.237942
3352.22	0.237876
3351.65	0.237869
3351.08	0.237787
3350.5	0.237753
3349.93	0.237763
3349.36	0.23773
3348.79	0.237731
3348.22	0.237739
3347.65	0.237683
3347.08	0.237697
3346.5	0.237733
3345.93	0.237702
3345.36	0.237654
3344.79	0.237583
3344.22	0.237506
3343.64	0.237443
3343.07	0.237337
3342.5	0.237352
3341.93	0.237414
3341.35	0.237376
3340.78	0.237352
3340.21	0.237301
3339.64	0.237236
3339.06	0.237158
3338.49	0.237065
3337.92	0.237061
3337.34	0.237046
3336.77	0.237044
3336.2	0.236963
3335.62	0.236935
3335.05	0.236978
3334.48	0.236941
3333.9	0.236897
3333.33	0.236924
3332.76	0.236858
3332.18	0.23681
3331.61	0.236723
3331.03	0.23672
3330.46	0.236725
3329.89	0.236728
3329.31	0.236704
3328.74	0.236667
3328.16	0.236553
3327.59	0.236538
3327.01	0.236522
3326.44	0.23648
3325.86	0.236435
3325.29	0.236438
3324.71	0.236403
3324.14	0.236313
3323.56	0.236237
3322.99	0.2362
3322.41	0.236166
3321.84	0.236145
3321.26	0.236155
3320.69	0.236145
3320.11	0.236154
3319.54	0.236117
3318.96	0.236074
3318.38	0.235976
3317.81	0.235909
3317.23	0.23586
3316.65	0.235894
3316.08	0.235835
3315.5	0.23582
3314.93	0.23579
3314.35	0.235766
3313.77	0.235724
3313.2	0.235672
3312.62	0.235629
3312.04	0.23561
3311.47	0.235586
3310.89	0.235584
3310.31	0.235545
3309.73	0.235538
3309.16	0.235541
3308.58	0.235531
3308	0.235543
3307.42	0.235426
3306.85	0.235396
3306.27	0.235306
3305.69	0.235184
3305.11	0.235151
3304.53	0.235167
3303.96	0.235257
3303.38	0.235249
3302.8	0.235184
3302.22	0.23515
3301.64	0.235083
3301.06	0.234993
3300.49	0.234996
3299.91	0.234978
3299.33	0.234964
3298.75	0.234856
3298.17	0.23487
3297.59	0.234836
3297.01	0.234849
3296.43	0.234826
3295.85	0.234842
3295.27	0.234761
3294.7	0.234723
3294.12	0.234581
3293.54	0.234528
3292.96	0.234464
3292.38	0.234445
3291.8	0.234441
3291.22	0.234446
3290.64	0.234422
3290.06	0.234454
3289.48	0.23434
3288.9	0.234332
3288.31	0.234297
3287.73	0.234238
3287.15	0.234227
3286.57	0.234205
3285.99	0.234178
3285.41	0.234208
3284.83	0.234188
3284.25	0.234157
3283.67	0.234046
3283.09	0.234
3282.51	0.234031
3281.92	0.233946
3281.34	0.233888
3280.76	0.233931
3280.18	0.233906
3279.6	0.233828
3279.02	0.233771
3278.43	0.233791
3277.85	0.233772
3277.27	0.233633
3276.69	0.233598
3276.11	0.233561
3275.52	0.2336
3274.94	0.233556
3274.36	0.233577
3273.78	0.23353
3273.19	0.233529
3272.61	0.233458
3272.03	0.23344
3271.44	0.233392
3270.86	0.233485
3270.28	0.233444
3269.69	0.23342
3269.11	0.233337
3268.53	0.233271
3267.94	0.233168
3267.36	0.233084
3266.78	0.233006
3266.19	0.233042
3265.61	0.233
3265.03	0.232951
3264.44	0.232923
3263.86	0.232867
3263.27	0.232879
3262.69	0.232818
3262.1	0.232763
3261.52	0.232776
3260.94	0.232717
3260.35	0.232701
3259.77	0.232678
3259.18	0.232705
3258.6	0.232711
3258.01	0.23266
3257.43	0.232611
3256.84	0.232568
3256.26	0.23249
3255.67	0.232477
3255.08	0.23243
3254.5	0.23246
3253.91	0.232428
3253.33	0.232421
3252.74	0.232343
3252.16	0.232264
3251.57	0.232215
3250.98	0.232158
3250.4	0.232061
3249.81	0.231946
3249.23	0.231876
3248.64	0.23191
3248.05	0.231883
3247.47	0.23195
3246.88	0.232089
3246.29	0.232088
3245.71	0.232072
3245.12	0.232023
3244.53	0.23196
3243.94	0.231893
3243.36	0.231854
3242.77	0.231847
3242.18	0.231839
3241.6	0.231721
3241.01	0.231746
3240.42	0.231763
3239.83	0.231661
3239.24	0.231603
3238.66	0.231584
3238.07	0.231516
3237.48	0.2314
3236.89	0.231376
3236.3	0.231387
3235.72	0.231407
3235.13	0.23134
3234.54	0.231302
3233.95	0.231243
3233.36	0.231158
3232.77	0.231093
3232.18	0.231149
3231.59	0.23116
3231.01	0.231188
3230.42	0.231132
3229.83	0.231061
3229.24	0.230977
3228.65	0.23088
3228.06	0.230848
3227.47	0.230848
3226.88	0.230866
3226.29	0.23082
3225.7	0.230774
3225.11	0.230736
3224.52	0.230717
3223.93	0.230701
3223.34	0.230634
3222.75	0.230564
3222.16	0.230553
3221.57	0.230467
3220.98	0.230401
3220.39	0.230402
3219.8	0.230387
3219.21	0.230407
3218.61	0.230371
3218.02	0.230306
3217.43	0.230322
3216.84	0.230263
3216.25	0.230225
3215.66	0.230193
3215.07	0.230114
3214.48	0.230138
3213.88	0.230132
3213.29	0.230059
3212.7	0.230084
3212.11	0.230022
3211.52	0.230037
3210.92	0.229951
3210.33	0.229857
3209.74	0.229867
3209.15	0.229801
3208.56	0.229748
3207.96	0.22978
3207.37	0.229764
3206.78	0.229804
3206.18	0.229741
3205.59	0.229679
3205	0.229626
3204.41	0.229466
3203.81	0.229381
3203.22	0.229381
3202.63	0.229385
3202.03	0.229439
3201.44	0.229428
3200.85	0.229366
3200.25	0.2293
3199.66	0.229219
3199.06	0.229181
3198.47	0.229171
3197.88	0.22914
3197.28	0.229148
3196.69	0.229116
3196.09	0.229062
3195.5	0.229064
3194.9	0.229063
3194.31	0.229002
3193.71	0.229003
3193.12	0.228937
3192.52	0.228885
3191.93	0.228851
3191.33	0.228836
3190.74	0.228797
3190.14	0.228733
3189.55	0.228624
3188.95	0.228655
3188.36	0.228664
3187.76	0.228674
3187.17	0.228632
3186.57	0.228652
3185.98	0.228547
3185.38	0.228414
3184.78	0.228316
3184.19	0.228316
3183.59	0.228322
3182.99	0.228328
3182.4	0.228321
3181.8	0.228355
3181.21	0.228356
3180.61	0.228295
3180.01	0.228288
3179.41	0.228286
3178.82	0.228255
3178.22	0.228269
3177.62	0.228191
3177.03	0.228128
3176.43	0.228095
3175.83	0.228042
3175.23	0.228043
3174.64	0.228059
3174.04	0.228015
3173.44	0.228039
3172.84	0.227911
3172.25	0.22786
3171.65	0.227802
3171.05	0.227764
3170.45	0.227819
3169.85	0.227801
3169.25	0.227742
3168.66	0.227699
3168.06	0.227619
3167.46	0.227597
3166.86	0.22761
3166.26	0.227617
3165.66	0.227646
3165.06	0.227615
3164.46	0.227516
3163.86	0.227454
3163.27	0.227468
3162.67	0.227469
3162.07	0.22749
3161.47	0.227483
3160.87	0.227501
3160.27	0.227508
3159.67	0.227445
3159.07	0.227456
3158.47	0.227503
3157.87	0.227534
3157.27	0.227523
3156.67	0.227495
3156.07	0.227491
3155.47	0.227475
3154.87	0.227462
3154.27	0.227433
3153.66	0.227473
3153.06	0.227543
3152.46	0.227536
3151.86	0.227505
3151.26	0.227479
3150.66	0.227465
3150.06	0.227454
3149.46	0.227367
3148.86	0.22732
3148.25	0.227271
3147.65	0.227251
3147.05	0.227255
3146.45	0.227299
3145.85	0.227313
3145.24	0.227264
3144.64	0.22721
3144.04	0.227247
3143.44	0.22719
3142.84	0.227075
3142.23	0.226919
3141.63	0.226851
3141.03	0.226812
3140.42	0.226781
3139.82	0.226807
3139.22	0.226824
3138.62	0.226804
3138.01	0.226696
3137.41	0.226537
3136.81	0.226467
3136.2	0.226398
3135.6	0.226445
3135	0.226367
3134.39	0.226323
3133.79	0.226366
3133.18	0.226291
3132.58	0.226193
3131.98	0.226056
3131.37	0.225946
3130.77	0.225918
3130.16	0.225853
3129.56	0.225921
3128.95	0.225935
3128.35	0.225875
3127.75	0.225831
3127.14	0.225761
3126.54	0.225727
3125.93	0.225661
3125.33	0.225604
3124.72	0.225565
3124.12	0.225497
3123.51	0.225432
3122.9	0.225351
3122.3	0.225316
3121.69	0.225311
3121.09	0.225354
3120.48	0.225364
3119.88	0.225336
3119.27	0.225343
3118.66	0.225347
3118.06	0.225249
3117.45	0.22521
3116.85	0.225084
3116.24	0.225029
3115.63	0.225026
3115.03	0.224999
3114.42	0.224995
3113.81	0.225024
3113.21	0.225022
3112.6	0.225033
3111.99	0.224999
3111.38	0.225036
3110.78	0.225068
3110.17	0.225083
3109.56	0.225068
3108.95	0.225011
3108.35	0.224988
3107.74	0.224904
3107.13	0.224931
3106.52	0.224958
3105.92	0.224836
3105.31	0.224845
3104.7	0.224844
3104.09	0.224817
3103.48	0.224828
3102.87	0.224807
3102.27	0.224979
3101.66	0.225027
3101.05	0.224946
3100.44	0.224921
3099.83	0.224847
3099.22	0.224779
3098.61	0.224801
3098	0.22474
3097.39	0.224813
3096.78	0.224806
3096.17	0.224746
3095.57	0.22476
3094.96	0.224772
3094.35	0.224821
3093.74	0.224886
3093.13	0.224825
3092.52	0.224883
3091.91	0.224823
3091.3	0.224674
3090.69	0.224695
3090.07	0.224715
3089.46	0.224734
3088.85	0.224838
3088.24	0.224897
3087.63	0.224909
3087.02	0.224847
3086.41	0.224707
3085.8	0.224569
3085.19	0.224566
3084.58	0.224524
3083.97	0.224494
3083.35	0.224351
3082.74	0.224343
3082.13	0.224474
3081.52	0.224518
3080.91	0.224641
3080.3	0.224889
3079.68	0.225009
3079.07	0.225012
3078.46	0.224948
3077.85	0.225008
3077.23	0.225006
3076.62	0.225069
3076.01	0.225128
3075.4	0.225116
3074.78	0.225056
3074.17	0.225063
3073.56	0.225108
3072.95	0.225285
3072.33	0.225405
3071.72	0.225581
3071.11	0.22575
3070.49	0.225696
3069.88	0.22567
3069.27	0.22582
3068.65	0.226002
3068.04	0.226215
3067.42	0.226469
3066.81	0.226661
3066.2	0.227081
3065.58	0.227374
3064.97	0.227852
3064.35	0.228256
3063.74	0.228786
3063.12	0.229162
3062.51	0.229597
3061.89	0.230027
3061.28	0.230685
3060.66	0.231412
3060.05	0.232232
3059.43	0.232915
3058.82	0.233764
3058.2	0.234344
3057.59	0.234787
3056.97	0.235416
3056.36	0.235916
3055.74	0.236245
3055.13	0.236615
3054.51	0.236872
3053.89	0.23699
3053.28	0.236944
3052.66	0.23664
3052.05	0.236573
3051.43	0.236074
3050.81	0.23543
3050.2	0.234896
3049.58	0.234077
3048.96	0.233377
3048.35	0.232662
3047.73	0.231892
3047.11	0.231412
3046.5	0.230951
3045.88	0.230583
3045.26	0.230269
3044.64	0.229813
3044.03	0.229673
3043.41	0.22941
3042.79	0.229196
3042.17	0.229036
3041.56	0.228787
3040.94	0.228471
3040.32	0.228069
3039.7	0.227702
3039.08	0.227155
3038.47	0.22685
3037.85	0.226499
3037.23	0.226246
3036.61	0.226023
3035.99	0.2257
3035.37	0.225314
3034.75	0.224867
3034.14	0.224225
3033.52	0.223897
3032.9	0.223328
3032.28	0.223057
3031.66	0.22296
3031.04	0.222715
3030.42	0.222554
3029.8	0.222431
3029.18	0.222308
3028.56	0.222136
3027.94	0.221833
3027.32	0.221619
3026.7	0.221485
3026.08	0.22144
3025.46	0.221439
3024.84	0.221472
3024.22	0.221492
3023.6	0.221432
3022.98	0.221204
3022.36	0.221024
3021.74	0.220939
3021.11	0.220915
3020.49	0.220977
3019.87	0.220974
3019.25	0.221039
3018.63	0.22097
3018.01	0.220949
3017.39	0.220926
3016.77	0.220957
3016.14	0.221016
3015.52	0.221082
3014.9	0.221017
3014.28	0.220932
3013.66	0.220805
3013.03	0.220842
3012.41	0.220744
3011.79	0.220654
3011.17	0.220604
3010.54	0.220484
3009.92	0.220333
3009.3	0.220245
3008.68	0.220185
3008.05	0.220197
3007.43	0.220191
3006.81	0.220288
3006.18	0.22032
3005.56	0.220251
3004.94	0.220133
3004.31	0.219985
3003.69	0.219801
3003.07	0.219712
3002.44	0.21974
3001.82	0.2198
3001.19	0.219779
3000.57	0.219753
2999.95	0.219669
2999.32	0.21956
2998.7	0.219463
2998.07	0.219418
2997.45	0.219508
2996.82	0.2194
2996.2	0.219383
2995.57	0.219413
2994.95	0.219291
2994.32	0.2192
2993.7	0.219068
2993.07	0.219048
2992.45	0.219185
2991.82	0.219078
2991.2	0.219079
2990.57	0.21906
2989.95	0.218999
2989.32	0.218942
2988.69	0.218877
2988.07	0.218924
2987.44	0.218963
2986.82	0.218858
2986.19	0.218905
2985.56	0.218867
2984.94	0.218895
2984.31	0.218906
2983.68	0.218785
2983.06	0.218634
2982.43	0.218526
2981.8	0.21842
2981.18	0.218375
2980.55	0.218317
2979.92	0.218318
2979.29	0.218421
2978.67	0.218372
2978.04	0.218381
2977.41	0.218435
2976.78	0.218398
2976.16	0.218255
2975.53	0.218167
2974.9	0.218103
2974.27	0.218114
2973.64	0.218095
2973.01	0.218171
2972.39	0.218182
2971.76	0.218223
2971.13	0.218185
2970.5	0.218235
2969.87	0.218221
2969.24	0.21815
2968.61	0.21807
2967.98	0.218061
2967.36	0.217833
2966.73	0.21781
2966.1	0.217722
2965.47	0.21769
2964.84	0.217657
2964.21	0.217721
2963.58	0.217722
2962.95	0.217778
2962.32	0.21769
2961.69	0.217737
2961.06	0.217734
2960.43	0.217636
2959.8	0.217611
2959.17	0.21764
2958.54	0.217645
2957.91	0.217674
2957.27	0.217709
2956.64	0.217773
2956.01	0.217765
2955.38	0.217723
2954.75	0.21766
2954.12	0.21763
2953.49	0.217626
2952.86	0.217553
2952.23	0.217591
2951.59	0.217615
2950.96	0.217612
2950.33	0.217662
2949.7	0.217584
2949.07	0.217698
2948.43	0.217689
2947.8	0.21773
2947.17	0.217836
2946.54	0.217846
2945.9	0.217873
2945.27	0.217799
2944.64	0.21772
2944.01	0.217781
2943.37	0.217669
2942.74	0.21763
2942.11	0.217579
2941.47	0.217576
2940.84	0.217577
2940.21	0.21744
2939.57	0.217401
2938.94	0.21738
2938.31	0.217241
2937.67	0.217191
2937.04	0.217152
2936.41	0.217164
2935.77	0.217201
2935.14	0.217057
2934.5	0.217126
2933.87	0.217093
2933.23	0.217117
2932.6	0.217103
2931.96	0.216953
2931.33	0.21681
2930.69	0.21672
2930.06	0.216586
2929.42	0.216647
2928.79	0.216568
2928.15	0.216682
2927.52	0.216646
2926.88	0.216534
2926.25	0.216367
2925.61	0.216402
2924.98	0.216376
2924.34	0.216375
2923.71	0.216385
2923.07	0.216383
2922.43	0.216289
2921.8	0.216197
2921.16	0.216041
2920.52	0.21607
2919.89	0.215988
2919.25	0.215962
2918.61	0.216031
2917.98	0.216106
2917.34	0.216038
2916.7	0.216047
2916.07	0.216064
2915.43	0.216007
2914.79	0.215926
2914.15	0.215935
2913.52	0.215883
2912.88	0.215845
2912.24	0.215696
2911.6	0.215683
2910.97	0.21573
2910.33	0.215651
2909.69	0.21561
2909.05	0.215717
2908.41	0.215651
2907.77	0.215517
2907.14	0.215535
2906.5	0.215452
2905.86	0.215428
2905.22	0.215334
2904.58	0.215322
2903.94	0.215315
2903.3	0.215264
2902.66	0.215226
2902.02	0.21523
2901.39	0.215232
2900.75	0.215252
2900.11	0.215283
2899.47	0.215304
2898.83	0.215233
2898.19	0.215259
2897.55	0.215228
2896.91	0.21512
2896.27	0.215138
2895.63	0.215101
2894.99	0.215166
2894.35	0.215119
2893.71	0.215092
2893.06	0.215141
2892.42	0.215005
2891.78	0.214852
2891.14	0.214815
2890.5	0.214701
2889.86	0.214659
2889.22	0.214801
2888.58	0.214949
2887.94	0.214972
2887.29	0.214969
2886.65	0.214782
2886.01	0.214737
2885.37	0.214491
2884.73	0.21442
2884.08	0.214458
2883.44	0.214536
2882.8	0.214565
2882.16	0.214715
2881.52	0.214594
2880.87	0.214551
2880.23	0.214501
2879.59	0.21448
2878.94	0.214299
2878.3	0.214335
2877.66	0.214268
2877.02	0.214198
2876.37	0.214096
2875.73	0.214052
2875.09	0.214162
2874.44	0.214282
2873.8	0.214285
2873.15	0.214364
2872.51	0.214331
2871.87	0.214204
2871.22	0.214161
2870.58	0.214067
2869.93	0.214076
2869.29	0.214032
2868.65	0.213935
2868	0.213872
2867.36	0.213812
2866.71	0.21381
2866.07	0.213788
2865.42	0.213819
2864.78	0.214116
2864.13	0.214229
2863.49	0.214406
2862.84	0.214437
2862.2	0.214257
2861.55	0.214101
2860.9	0.213865
2860.26	0.213718
2859.61	0.213743
2858.97	0.213735
2858.32	0.2138
2857.67	0.213909
2857.03	0.213943
2856.38	0.213961
2855.74	0.213956
2855.09	0.213905
2854.44	0.213739
2853.8	0.213487
2853.15	0.213433
2852.5	0.21352
2851.85	0.213585
2851.21	0.213669
2850.56	0.213698
2849.91	0.213744
2849.27	0.213695
2848.62	0.213513
2847.97	0.213593
2847.32	0.213537
2846.67	0.213543
2846.03	0.213577
2845.38	0.213547
2844.73	0.213628
2844.08	0.213649
2843.43	0.213529
2842.79	0.213462
2842.14	0.213371
2841.49	0.213362
2840.84	0.213418
2840.19	0.213466
2839.54	0.21361
2838.89	0.213629
2838.24	0.21344
2837.59	0.213279
2836.94	0.213137
2836.3	0.213075
2835.65	0.213027
2835	0.212908
2834.35	0.212898
2833.7	0.212877
2833.05	0.212768
2832.4	0.212812
2831.75	0.212863
2831.1	0.212914
2830.45	0.212858
2829.8	0.212771
2829.14	0.212664
2828.49	0.212489
2827.84	0.212339
2827.19	0.212272
2826.54	0.212259
2825.89	0.212364
2825.24	0.212443
2824.59	0.212543
2823.94	0.212672
2823.28	0.212659
2822.63	0.212591
2821.98	0.212509
2821.33	0.212501
2820.68	0.212504
2820.03	0.212447
2819.37	0.212441
2818.72	0.212549
2818.07	0.212532
2817.42	0.212496
2816.76	0.212358
2816.11	0.212317
2815.46	0.212238
2814.81	0.212131
2814.15	0.21206
2813.5	0.212129
2812.85	0.21208
2812.19	0.212147
2811.54	0.212088
2810.89	0.212091
2810.23	0.212048
2809.58	0.211945
2808.93	0.211856
2808.27	0.211832
2807.62	0.211853
2806.96	0.211815
2806.31	0.211766
2805.66	0.211658
2805	0.211666
2804.35	0.211775
2803.69	0.211637
2803.04	0.211729
2802.38	0.211834
2801.73	0.211785
2801.07	0.211795
2800.42	0.211716
2799.76	0.211865
2799.11	0.211967
2798.45	0.21183
2797.8	0.211881
2797.14	0.211759
2796.49	0.211679
2795.83	0.211562
2795.17	0.2115
2794.52	0.211563
2793.86	0.211558
2793.21	0.211575
2792.55	0.211614
2791.89	0.211475
2791.24	0.21137
2790.58	0.211224
2789.92	0.21117
2789.27	0.211288
2788.61	0.211315
2787.95	0.211352
2787.3	0.211282
2786.64	0.211105
2785.98	0.211092
2785.32	0.2109
2784.67	0.211002
2784.01	0.211288
2783.35	0.211466
2782.69	0.211671
2782.04	0.211476
2781.38	0.211402
2780.72	0.211373
2780.06	0.211
2779.4	0.210984
2778.74	0.210964
2778.09	0.210974
2777.43	0.211122
2776.77	0.211008
2776.11	0.210963
2775.45	0.210951
2774.79	0.210856
2774.13	0.210989
2773.47	0.211037
2772.81	0.211094
2772.15	0.211143
2771.49	0.211088
2770.84	0.210972
2770.18	0.210958
2769.52	0.211071
2768.86	0.211068
2768.2	0.211155
2767.54	0.211105
2766.87	0.211008
2766.21	0.210867
2765.55	0.210732
2764.89	0.210722
2764.23	0.210814
2763.57	0.210756
2762.91	0.210905
2762.25	0.210905
2761.59	0.211021
2760.93	0.211008
2760.27	0.210902
2759.6	0.210998
2758.94	0.210891
2758.28	0.210753
2757.62	0.210717
2756.96	0.210715
2756.3	0.210751
2755.63	0.21078
2754.97	0.210862
2754.31	0.211048
2753.65	0.211102
2752.98	0.211214
2752.32	0.211176
2751.66	0.211053
2751	0.210818
2750.33	0.210499
2749.67	0.210437
2749.01	0.210296
2748.34	0.210404
2747.68	0.210606
2747.02	0.210718
2746.35	0.210765
2745.69	0.210801
2745.03	0.210766
2744.36	0.210826
2743.7	0.210723
2743.04	0.210725
2742.37	0.210627
2741.71	0.210601
2741.04	0.210474
2740.38	0.210466
2739.71	0.210445
2739.05	0.210449
2738.38	0.210459
2737.72	0.210331
2737.05	0.210264
2736.39	0.210183
2735.72	0.210093
2735.06	0.210131
2734.39	0.21
2733.73	0.210011
2733.06	0.20987
2732.4	0.209726
2731.73	0.209834
2731.07	0.209871
2730.4	0.209944
2729.73	0.209937
2729.07	0.20985
2728.4	0.209852
2727.73	0.209812
2727.07	0.20984
2726.4	0.209765
2725.73	0.209844
2725.07	0.209806
2724.4	0.209651
2723.73	0.209555
2723.07	0.209494
2722.4	0.209758
2721.73	0.209724
2721.06	0.209581
2720.4	0.209654
2719.73	0.209541
2719.06	0.209396
2718.39	0.209309
2717.73	0.209329
2717.06	0.209507
2716.39	0.209569
2715.72	0.20954
2715.05	0.209682
2714.38	0.209555
2713.72	0.209432
2713.05	0.20927
2712.38	0.209076
2711.71	0.209145
2711.04	0.209268
2710.37	0.209279
2709.7	0.209479
2709.03	0.209425
2708.36	0.209383
2707.69	0.209186
2707.02	0.209001
2706.35	0.209098
2705.68	0.209114
2705.01	0.209202
2704.34	0.209145
2703.67	0.209135
2703	0.209069
2702.33	0.209022
2701.66	0.209048
2700.99	0.209107
2700.32	0.209243
2699.65	0.209182
2698.98	0.209134
2698.31	0.209103
2697.64	0.209058
2696.97	0.209142
2696.29	0.209204
2695.62	0.20924
2694.95	0.20921
2694.28	0.209111
2693.61	0.209054
2692.94	0.209048
2692.26	0.20904
2691.59	0.209071
2690.92	0.208967
2690.25	0.208898
2689.58	0.20887
2688.9	0.208853
2688.23	0.208713
2687.56	0.208765
2686.88	0.208654
2686.21	0.208685
2685.54	0.208628
2684.87	0.208547
2684.19	0.20874
2683.52	0.208778
2682.85	0.20868
2682.17	0.208759
2681.5	0.208706
2680.82	0.208725
2680.15	0.20874
2679.48	0.208563
2678.8	0.208562
2678.13	0.208457
2677.45	0.208341
2676.78	0.20853
2676.1	0.208627
2675.43	0.208679
2674.76	0.208711
2674.08	0.208688
2673.41	0.208734
2672.73	0.208738
2672.06	0.208816
2671.38	0.208944
2670.7	0.208947
2670.03	0.208878
2669.35	0.208783
2668.68	0.208597
2668	0.20858
2667.33	0.20849
2666.65	0.208364
2665.97	0.208204
2665.3	0.20817
2664.62	0.208252
2663.95	0.208518
2663.27	0.208677
2662.59	0.208845
2661.92	0.208979
2661.24	0.208987
2660.56	0.208873
2659.88	0.20878
2659.21	0.208631
2658.53	0.208669
2657.85	0.208558
2657.17	0.208391
2656.5	0.208454
2655.82	0.208547
2655.14	0.208666
2654.46	0.20885
2653.79	0.208907
2653.11	0.208947
2652.43	0.208858
2651.75	0.208793
2651.07	0.208953
2650.39	0.208973
2649.72	0.20908
2649.04	0.209204
2648.36	0.2093
2647.68	0.209218
2647	0.209171
2646.32	0.209083
2645.64	0.209255
2644.96	0.209104
2644.28	0.209148
2643.6	0.209117
2642.92	0.209145
2642.24	0.208993
2641.56	0.209035
2640.88	0.208903
2640.2	0.208929
2639.52	0.208704
2638.84	0.208733
2638.16	0.208598
2637.48	0.208506
2636.8	0.208567
2636.12	0.208592
2635.44	0.208417
2634.76	0.20828
2634.08	0.208134
2633.39	0.208176
2632.71	0.208208
2632.03	0.208265
2631.35	0.208439
2630.67	0.208369
2629.99	0.208183
2629.3	0.20805
2628.62	0.208048
2627.94	0.207895
2627.26	0.207861
2626.58	0.207993
2625.89	0.208048
2625.21	0.20803
2624.53	0.20792
2623.85	0.207834
2623.16	0.207796
2622.48	0.20752
2621.8	0.207553
2621.11	0.207603
2620.43	0.207765
2619.75	0.207862
2619.06	0.207886
2618.38	0.207795
2617.7	0.207765
2617.01	0.20774
2616.33	0.207746
2615.64	0.207655
2614.96	0.207767
2614.28	0.207696
2613.59	0.207615
2612.91	0.207579
2612.22	0.20753
2611.54	0.207522
2610.85	0.20742
2610.17	0.207511
2609.48	0.207557
2608.8	0.207372
2608.11	0.207328
2607.43	0.207408
2606.74	0.207354
2606.06	0.207248
2605.37	0.207116
2604.68	0.207306
2604	0.207316
2603.31	0.207286
2602.63	0.207384
2601.94	0.207313
2601.25	0.2073
2600.57	0.207271
2599.88	0.2073
2599.19	0.207482
2598.51	0.207399
2597.82	0.207577
2597.13	0.207594
2596.45	0.207431
2595.76	0.207405
2595.07	0.207382
2594.38	0.207312
2593.7	0.207395
2593.01	0.207213
2592.32	0.20721
2591.63	0.207152
2590.95	0.207239
2590.26	0.207451
2589.57	0.207593
2588.88	0.207722
2588.19	0.207832
2587.5	0.207706
2586.82	0.207606
2586.13	0.207519
2585.44	0.207414
2584.75	0.207333
2584.06	0.207309
2583.37	0.207416
2582.68	0.207337
2581.99	0.207435
2581.3	0.207659
2580.61	0.207885
2579.92	0.207849
2579.23	0.207868
2578.54	0.207884
2577.85	0.207815
2577.16	0.207577
2576.47	0.207449
2575.78	0.207478
2575.09	0.207521
2574.4	0.207567
2573.71	0.207809
2573.02	0.207912
2572.33	0.207979
2571.64	0.207921
2570.95	0.207819
2570.26	0.207558
2569.56	0.207417
2568.87	0.207439
2568.18	0.207623
2567.49	0.207641
2566.8	0.207823
2566.11	0.207943
2565.41	0.208033
2564.72	0.208038
2564.03	0.208141
2563.34	0.208139
2562.64	0.208083
2561.95	0.207924
2561.26	0.207838
2560.57	0.207559
2559.87	0.207454
2559.18	0.207418
2558.49	0.207372
2557.79	0.207304
2557.1	0.207518
2556.41	0.207685
2555.71	0.207773
2555.02	0.207927
2554.33	0.208046
2553.63	0.207953
2552.94	0.207865
2552.24	0.207806
2551.55	0.207807
2550.86	0.207654
2550.16	0.207804
2549.47	0.208128
2548.77	0.208308
2548.08	0.208413
2547.38	0.208456
2546.69	0.208422
2545.99	0.208423
2545.3	0.208553
2544.6	0.208844
2543.91	0.209142
2543.21	0.209444
2542.51	0.209751
2541.82	0.209553
2541.12	0.209406
2540.43	0.209459
2539.73	0.209776
2539.03	0.209932
2538.34	0.210315
2537.64	0.210662
2536.95	0.21101
2536.25	0.210735
2535.55	0.210662
2534.86	0.210596
2534.16	0.210619
2533.46	0.210546
2532.76	0.210582
2532.07	0.210568
2531.37	0.210612
2530.67	0.210723
2529.97	0.211016
2529.28	0.211079
2528.58	0.21126
2527.88	0.211578
2527.18	0.211685
2526.48	0.21174
2525.79	0.211668
2525.09	0.21172
2524.39	0.211715
2523.69	0.211613
2522.99	0.211521
2522.29	0.211643
2521.59	0.211564
2520.89	0.211672
2520.19	0.211388
2519.5	0.211293
2518.8	0.211289
2518.1	0.211294
2517.4	0.21121
2516.7	0.21125
2516	0.211153
2515.3	0.211299
2514.6	0.211103
2513.9	0.211137
2513.2	0.210895
2512.5	0.210875
2511.8	0.210817
2511.09	0.21067
2510.39	0.210391
2509.69	0.210385
2508.99	0.210282
2508.29	0.210066
2507.59	0.210037
2506.89	0.21004
2506.19	0.209998
2505.49	0.20989
2504.78	0.209766
2504.08	0.209579
2503.38	0.20936
2502.68	0.209173
2501.98	0.209264
2501.27	0.209207
2500.57	0.209093
2499.87	0.208953
2499.17	0.208963
2498.46	0.208649
2497.76	0.208476
2497.06	0.208312
2496.35	0.208156
2495.65	0.208205
2494.95	0.207824
2494.25	0.207724
2493.54	0.207743
2492.84	0.207607
2492.13	0.207616
2491.43	0.207593
2490.73	0.207608
2490.02	0.207711
2489.32	0.207638
2488.61	0.207653
2487.91	0.2077
2487.21	0.207564
2486.5	0.207549
2485.8	0.207384
2485.09	0.207362
2484.39	0.207356
2483.68	0.207338
2482.98	0.207312
2482.27	0.207242
2481.57	0.206995
2480.86	0.206917
2480.15	0.206861
2479.45	0.207044
2478.74	0.207098
2478.04	0.207199
2477.33	0.207003
2476.62	0.206748
2475.92	0.206607
2475.21	0.206547
2474.51	0.206522
2473.8	0.20659
2473.09	0.206599
2472.39	0.206642
2471.68	0.206351
2470.97	0.206426
2470.26	0.206403
2469.56	0.206221
2468.85	0.206119
2468.14	0.206097
2467.43	0.205871
2466.73	0.205802
2466.02	0.205982
2465.31	0.206235
2464.6	0.206079
2463.89	0.205914
2463.19	0.205724
2462.48	0.205803
2461.77	0.205724
2461.06	0.205723
2460.35	0.206257
2459.64	0.2066
2458.93	0.206607
2458.22	0.206457
2457.52	0.206323
2456.81	0.206396
2456.1	0.20628
2455.39	0.20598
2454.68	0.205885
2453.97	0.205851
2453.26	0.205724
2452.55	0.20542
2451.84	0.205614
2451.13	0.20547
2450.42	0.205521
2449.71	0.205562
2449	0.20545
2448.28	0.205789
2447.57	0.205926
2446.86	0.205827
2446.15	0.206067
2445.44	0.205741
2444.73	0.205573
2444.02	0.205567
2443.31	0.205635
2442.59	0.205959
2441.88	0.20598
2441.17	0.20594
2440.46	0.205881
2439.75	0.205836
2439.04	0.205539
2438.32	0.205499
2437.61	0.205609
2436.9	0.205708
2436.19	0.205748
2435.47	0.205752
2434.76	0.205767
2434.05	0.205867
2433.33	0.205789
2432.62	0.205751
2431.91	0.205741
2431.19	0.2057
2430.48	0.20575
2429.77	0.205814
2429.05	0.205904
2428.34	0.205925
2427.62	0.206043
2426.91	0.205924
2426.2	0.206036
2425.48	0.205901
2424.77	0.205936
2424.05	0.205761
2423.34	0.205746
2422.62	0.205665
2421.91	0.205663
2421.19	0.205597
2420.48	0.205791
2419.76	0.205919
2419.05	0.2061
2418.33	0.205866
2417.62	0.2057
2416.9	0.205465
2416.18	0.205403
2415.47	0.205425
2414.75	0.205538
2414.04	0.2058
2413.32	0.206007
2412.6	0.205874
2411.89	0.205725
2411.17	0.205716
2410.45	0.205766
2409.74	0.205688
2409.02	0.205574
2408.3	0.205564
2407.58	0.205496
2406.87	0.205558
2406.15	0.205695
2405.43	0.205842
2404.71	0.20579
2404	0.205917
2403.28	0.205872
2402.56	0.205926
2401.84	0.205763
2401.12	0.205919
2400.41	0.20594
2399.69	0.205997
2398.97	0.205894
2398.25	0.206062
2397.53	0.206046
2396.81	0.206055
2396.09	0.205786
2395.37	0.20585
2394.65	0.205982
2393.94	0.206069
2393.22	0.206174
2392.5	0.205965
2391.78	0.205987
2391.06	0.205932
2390.34	0.20591
2389.62	0.206125
2388.9	0.206077
2388.18	0.20623
2387.46	0.206229
2386.73	0.206054
2386.01	0.205957
2385.29	0.206023
2384.57	0.206136
2383.85	0.206256
2383.13	0.206248
2382.41	0.206421
2381.69	0.206402
2380.97	0.206652
2380.24	0.206559
2379.52	0.206541
2378.8	0.206346
2378.08	0.206335
2377.36	0.206277
2376.63	0.206214
2375.91	0.206349
2375.19	0.206403
2374.47	0.206401
2373.74	0.2062
2373.02	0.206041
2372.3	0.206236
2371.58	0.206385
2370.85	0.206652
2370.13	0.206719
2369.41	0.206492
2368.68	0.206501
2367.96	0.206268
2367.23	0.206109
2366.51	0.206191
2365.79	0.206261
2365.06	0.206534
2364.34	0.206556
2363.61	0.206521
2362.89	0.206544
2362.16	0.20666
2361.44	0.206558
2360.72	0.206428
2359.99	0.206284
2359.27	0.206409
2358.54	0.206478
2357.81	0.20644
2357.09	0.20619
2356.36	0.206254
2355.64	0.206242
2354.91	0.206059
2354.19	0.20589
2353.46	0.205857
2352.73	0.205973
2352.01	0.206164
2351.28	0.206047
2350.56	0.206257
2349.83	0.20638
2349.1	0.206088
2348.38	0.205919
2347.65	0.205854
2346.92	0.205921
2346.19	0.206125
2345.47	0.206357
2344.74	0.206499
2344.01	0.206729
2343.29	0.20641
2342.56	0.206226
2341.83	0.206102
2341.1	0.205857
2340.37	0.205892
2339.65	0.206204
2338.92	0.206384
2338.19	0.206708
2337.46	0.206574
2336.73	0.206463
2336	0.206437
2335.27	0.206293
2334.54	0.206539
2333.82	0.206582
2333.09	0.206602
2332.36	0.206532
2331.63	0.206437
2330.9	0.206459
2330.17	0.206634
2329.44	0.206622
2328.71	0.207042
2327.98	0.207055
2327.25	0.20709
2326.52	0.207121
2325.79	0.207258
2325.06	0.207442
2324.33	0.20765
2323.59	0.207663
2322.86	0.207981
2322.13	0.208248
2321.4	0.208384
2320.67	0.208549
2319.94	0.20877
2319.21	0.20871
2318.48	0.208798
2317.74	0.208719
2317.01	0.208531
2316.28	0.208444
2315.55	0.208387
2314.82	0.208556
2314.08	0.208707
2313.35	0.20873
2312.62	0.209035
2311.89	0.208955
2311.15	0.208414
2310.42	0.207993
2309.69	0.207698
2308.95	0.207453
2308.22	0.207076
2307.49	0.207109
2306.75	0.207138
2306.02	0.207173
2305.29	0.207189
2304.55	0.20724
2303.82	0.207355
2303.08	0.207318
2302.35	0.207323
2301.62	0.20729
2300.88	0.207067
2300.15	0.207078
2299.41	0.2072
2298.68	0.206896
2297.94	0.206887
2297.21	0.206865
2296.47	0.206881
2295.74	0.206628
2295	0.206751
2294.27	0.206942
2293.53	0.207202
2292.79	0.207056
2292.06	0.207106
2291.32	0.207081
2290.59	0.206964
2289.85	0.206989
2289.11	0.207084
2288.38	0.206685
2287.64	0.206682
2286.9	0.206556
2286.17	0.20638
2285.43	0.206288
2284.69	0.206466
2283.96	0.206696
2283.22	0.206743
2282.48	0.206826
2281.74	0.206972
2281.01	0.206891
2280.27	0.206557
2279.53	0.206204
2278.79	0.2059
2278.05	0.20596
2277.32	0.206096
2276.58	0.206416
2275.84	0.206397
2275.1	0.206644
2274.36	0.206718
2273.62	0.206838
2272.88	0.206818
2272.14	0.207155
2271.4	0.207053
2270.67	0.206786
2269.93	0.206819
2269.19	0.206916
2268.45	0.206768
2267.71	0.206636
2266.97	0.206465
2266.23	0.206455
2265.49	0.206414
2264.75	0.206325
2264.01	0.206488
2263.26	0.2068
2262.52	0.206712
2261.78	0.206666
2261.04	0.206698
2260.3	0.206427
2259.56	0.206483
2258.82	0.206227
2258.08	0.20618
2257.34	0.206357
2256.59	0.206284
2255.85	0.206287
2255.11	0.206438
2254.37	0.206093
2253.63	0.206305
2252.88	0.206436
2252.14	0.206644
2251.4	0.207009
2250.66	0.20709
2249.91	0.207036
2249.17	0.207069
2248.43	0.206786
2247.68	0.206845
2246.94	0.206977
2246.2	0.206796
2245.45	0.206782
2244.71	0.206621
2243.97	0.206607
2243.22	0.206648
2242.48	0.206417
2241.74	0.206565
2240.99	0.206591
2240.25	0.206465
2239.5	0.206337
2238.76	0.206446
2238.01	0.20666
2237.27	0.206784
2236.52	0.206821
2235.78	0.207155
2235.03	0.207155
2234.29	0.207362
2233.54	0.207496
2232.8	0.207673
2232.05	0.207494
2231.31	0.207549
2230.56	0.207476
2229.81	0.207326
2229.07	0.206946
2228.32	0.206644
2227.57	0.206747
2226.83	0.20693
2226.08	0.206895
2225.33	0.207371
2224.59	0.207468
2223.84	0.207629
2223.09	0.207653
2222.35	0.207302
2221.6	0.207187
2220.85	0.207148
2220.1	0.206973
2219.36	0.207173
2218.61	0.207268
2217.86	0.207647
2217.11	0.208334
2216.36	0.208583
2215.62	0.20866
2214.87	0.208887
2214.12	0.208693
2213.37	0.208526
2212.62	0.208334
2211.87	0.208417
2211.12	0.208744
2210.37	0.208952
2209.62	0.209137
2208.87	0.209364
2208.13	0.209249
2207.38	0.209003
2206.63	0.208824
2205.88	0.208519
2205.13	0.20843
2204.38	0.208211
2203.63	0.208354
2202.87	0.208425
2202.12	0.208739
2201.37	0.208964
2200.62	0.208839
2199.87	0.208587
2199.12	0.208665
2198.37	0.208398
2197.62	0.208658
2196.87	0.20872
2196.12	0.209119
2195.36	0.20949
2194.61	0.209427
2193.86	0.209279
2193.11	0.209209
2192.36	0.209266
2191.6	0.209199
2190.85	0.209037
2190.1	0.209243
2189.35	0.209425
2188.59	0.209436
2187.84	0.209332
2187.09	0.20942
2186.33	0.209515
2185.58	0.209393
2184.83	0.209306
2184.07	0.209653
2183.32	0.209831
2182.57	0.209783
2181.81	0.209489
2181.06	0.209554
2180.3	0.209325
2179.55	0.209365
2178.8	0.209258
2178.04	0.209253
2177.29	0.209493
2176.53	0.209364
2175.78	0.208991
2175.02	0.209372
2174.27	0.209527
2173.51	0.20983
2172.76	0.209895
2172	0.209631
2171.25	0.209771
2170.49	0.209537
2169.73	0.20912
2168.98	0.209332
2168.22	0.209337
2167.47	0.209587
2166.71	0.209637
2165.95	0.209584
2165.2	0.209725
2164.44	0.209619
2163.68	0.209369
2162.93	0.209531
2162.17	0.209506
2161.41	0.209653
2160.65	0.209668
2159.9	0.209619
2159.14	0.209769
2158.38	0.20984
2157.62	0.209699
2156.87	0.2098
2156.11	0.20997
2155.35	0.210175
2154.59	0.210222
2153.83	0.210098
2153.07	0.210112
2152.32	0.210212
2151.56	0.210241
2150.8	0.210368
2150.04	0.210501
2149.28	0.210546
2148.52	0.210482
2147.76	0.210299
2147	0.210208
2146.24	0.210203
2145.48	0.210353
2144.72	0.210458
2143.96	0.210292
2143.2	0.210179
2142.44	0.210337
2141.68	0.210367
2140.92	0.210199
2140.16	0.210104
2139.4	0.210358
2138.64	0.210374
2137.88	0.210333
2137.11	0.21043
2136.35	0.210545
2135.59	0.210329
2134.83	0.209839
2134.07	0.209308
2133.31	0.209412
2132.54	0.208838
2131.78	0.209003
2131.02	0.209281
2130.26	0.20965
2129.5	0.209787
2128.73	0.20969
2127.97	0.209774
2127.21	0.210324
2126.44	0.210134
2125.68	0.210252
2124.92	0.210181
2124.16	0.210236
2123.39	0.20983
2122.63	0.209611
2121.86	0.209788
2121.1	0.210155
2120.34	0.210275
2119.57	0.210202
2118.81	0.2102
2118.04	0.209894
2117.28	0.209776
2116.51	0.210004
2115.75	0.210158
2114.99	0.210327
2114.22	0.210544
2113.46	0.210769
2112.69	0.210953
2111.92	0.210645
2111.16	0.210873
2110.39	0.211125
2109.63	0.211044
2108.86	0.210689
2108.1	0.210441
2107.33	0.210367
2106.56	0.21041
2105.8	0.210165
2105.03	0.210672
2104.26	0.21075
2103.5	0.210585
2102.73	0.210678
2101.96	0.210694
2101.2	0.210732
2100.43	0.210698
2099.66	0.210587
2098.89	0.210752
2098.13	0.210438
2097.36	0.210224
2096.59	0.210347
2095.82	0.210336
2095.06	0.210422
2094.29	0.210314
2093.52	0.210627
2092.75	0.210606
2091.98	0.210565
2091.21	0.21034
2090.44	0.210126
2089.67	0.209824
2088.91	0.209993
2088.14	0.210103
2087.37	0.210542
2086.6	0.210961
2085.83	0.210853
2085.06	0.21094
2084.29	0.210723
2083.52	0.210452
2082.75	0.210553
2081.98	0.210376
2081.21	0.21032
2080.44	0.210657
2079.67	0.21039
2078.9	0.210551
2078.12	0.210448
2077.35	0.210353
2076.58	0.210688
2075.81	0.210555
2075.04	0.210833
2074.27	0.210972
2073.5	0.211217
2072.72	0.211085
2071.95	0.210664
2071.18	0.210555
2070.41	0.21068
2069.64	0.210512
2068.86	0.210738
2068.09	0.210634
2067.32	0.210921
2066.55	0.210603
2065.77	0.210309
2065	0.21063
2064.23	0.210669
2063.45	0.210932
2062.68	0.210969
2061.91	0.21083
2061.13	0.210805
2060.36	0.210878
2059.58	0.210724
2058.81	0.210988
2058.04	0.211157
2057.26	0.211297
2056.49	0.211169
2055.71	0.21098
2054.94	0.210808
2054.16	0.210696
2053.39	0.210462
2052.61	0.210555
2051.84	0.210726
2051.06	0.210878
2050.29	0.211217
2049.51	0.211337
2048.73	0.2115
2047.96	0.21136
2047.18	0.211488
2046.41	0.211442
2045.63	0.211526
2044.85	0.211315
2044.08	0.211292
2043.3	0.211173
2042.52	0.211175
2041.75	0.211241
2040.97	0.211441
2040.19	0.211706
2039.42	0.211767
2038.64	0.21212
2037.86	0.212309
2037.08	0.212331
2036.31	0.212121
2035.53	0.212002
2034.75	0.211773
2033.97	0.211585
2033.19	0.211532
2032.41	0.212017
2031.64	0.212119
2030.86	0.212175
2030.08	0.212143
2029.3	0.212423
2028.52	0.212538
2027.74	0.212184
2026.96	0.212519
2026.18	0.21212
2025.4	0.211851
2024.62	0.211448
2023.84	0.211182
2023.06	0.211378
2022.28	0.21162
2021.5	0.211877
2020.72	0.212854
2019.94	0.21284
2019.16	0.213012
2018.38	0.212811
2017.6	0.212476
2016.82	0.211996
2016.04	0.211886
2015.25	0.211742
2014.47	0.212086
2013.69	0.212009
2012.91	0.212094
2012.13	0.212192
2011.35	0.212415
2010.56	0.212486
2009.78	0.212633
2009	0.212727
2008.22	0.213229
2007.43	0.213446
2006.65	0.213497
2005.87	0.213182
2005.09	0.212791
2004.3	0.212475
2003.52	0.212256
2002.74	0.212468
2001.95	0.212862
2001.17	0.213446
2000.39	0.213808
1999.6	0.213689
1998.82	0.213492
1998.03	0.213285
1997.25	0.213262
1996.46	0.213416
1995.68	0.213377
1994.9	0.213569
1994.11	0.213792
1993.33	0.213765
1992.54	0.213267
1991.75	0.213089
1990.97	0.21315
1990.18	0.213122
1989.4	0.213166
1988.61	0.213434
1987.83	0.213927
1987.04	0.21377
1986.25	0.213555
1985.47	0.214091
1984.68	0.214497
1983.9	0.214536
1983.11	0.214432
1982.32	0.214525
1981.54	0.214415
1980.75	0.214444
1979.96	0.214447
1979.17	0.214826
1978.39	0.215066
1977.6	0.215016
1976.81	0.214858
1976.02	0.215146
1975.24	0.214985
1974.45	0.215101
1973.66	0.214863
1972.87	0.214908
1972.08	0.214763
1971.29	0.214553
1970.5	0.214367
1969.72	0.214319
1968.93	0.214416
1968.14	0.214124
1967.35	0.214168
1966.56	0.214484
1965.77	0.214722
1964.98	0.214844
1964.19	0.214813
1963.4	0.215113
1962.61	0.215581
1961.82	0.215194
1961.03	0.215025
1960.24	0.215215
1959.45	0.215382
1958.66	0.215532
1957.87	0.215718
1957.08	0.215927
1956.28	0.215781
1955.49	0.215407
1954.7	0.214899
1953.91	0.214915
1953.12	0.215146
1952.33	0.215486
1951.54	0.215748
1950.74	0.215818
1949.95	0.215703
1949.16	0.215591
1948.37	0.215424
1947.57	0.215746
1946.78	0.215945
1945.99	0.215979
1945.2	0.216134
1944.4	0.216323
1943.61	0.216113
1942.82	0.215668
1942.02	0.215522
1941.23	0.21576
1940.43	0.215939
1939.64	0.216098
1938.85	0.216541
1938.05	0.216985
1937.26	0.217162
1936.46	0.216939
1935.67	0.216737
1934.87	0.216705
1934.08	0.216542
1933.28	0.21646
1932.49	0.216524
1931.69	0.216907
1930.9	0.217442
1930.1	0.217683
1929.31	0.217717
1928.51	0.217983
1927.72	0.218122
1926.92	0.217855
1926.12	0.217612
1925.33	0.217697
1924.53	0.217743
1923.73	0.217888
1922.94	0.217941
1922.14	0.21812
1921.34	0.218085
1920.55	0.217651
1919.75	0.217523
1918.95	0.217523
1918.16	0.217622
1917.36	0.2178
1916.56	0.218145
1915.76	0.218115
1914.96	0.218087
1914.17	0.218052
1913.37	0.217562
1912.57	0.217588
1911.77	0.217523
1910.97	0.217317
1910.17	0.217561
1909.37	0.217789
1908.58	0.218074
1907.78	0.217955
1906.98	0.217642
1906.18	0.218015
1905.38	0.218089
1904.58	0.218161
1903.78	0.218449
1902.98	0.218874
1902.18	0.218904
1901.38	0.218641
1900.58	0.218429
1899.78	0.218234
1898.98	0.218234
1898.17	0.218167
1897.37	0.218188
1896.57	0.218423
1895.77	0.218467
1894.97	0.218676
1894.17	0.219072
1893.37	0.219428
1892.57	0.219729
1891.76	0.21929
1890.96	0.219301
1890.16	0.219197
1889.36	0.219092
1888.55	0.219166
1887.75	0.219345
1886.95	0.219695
1886.15	0.21965
1885.34	0.219493
1884.54	0.219777
1883.74	0.219485
1882.93	0.219418
1882.13	0.219368
1881.33	0.219457
1880.52	0.219804
1879.72	0.219873
1878.91	0.220202
1878.11	0.22028
1877.31	0.220193
1876.5	0.220127
1875.7	0.220192
1874.89	0.220352
1874.09	0.220451
1873.28	0.220431
1872.48	0.220319
1871.67	0.220022
1870.87	0.220433
1870.06	0.220512
1869.26	0.220695
1868.45	0.220842
1867.64	0.221294
1866.84	0.221428
1866.03	0.221111
1865.23	0.220736
1864.42	0.220903
1863.61	0.220723
1862.81	0.221189
1862	0.221346
1861.19	0.221843
1860.38	0.222086
1859.58	0.22169
1858.77	0.221401
1857.96	0.221175
1857.15	0.22099
1856.35	0.221447
1855.54	0.221719
1854.73	0.221815
1853.92	0.221735
1853.11	0.22151
1852.31	0.221631
1851.5	0.221631
1850.69	0.221734
1849.88	0.221763
1849.07	0.222226
1848.26	0.222258
1847.45	0.222337
1846.64	0.22297
1845.83	0.223412
1845.02	0.223576
1844.21	0.223791
1843.4	0.223291
1842.59	0.223138
1841.78	0.223179
1840.97	0.223335
1840.16	0.224159
1839.35	0.224376
1838.54	0.224275
1837.73	0.224291
1836.92	0.223955
1836.11	0.22418
1835.3	0.224316
1834.48	0.22436
1833.67	0.224903
1832.86	0.225263
1832.05	0.225436
1831.24	0.225589
1830.42	0.225966
1829.61	0.226398
1828.8	0.226639
1827.99	0.226719
1827.17	0.227357
1826.36	0.227959
1825.55	0.22861
1824.73	0.228797
1823.92	0.229198
1823.11	0.229386
1822.29	0.230006
1821.48	0.23023
1820.67	0.230852
1819.85	0.231106
1819.04	0.231472
1818.22	0.231563
1817.41	0.231116
1816.6	0.231289
1815.78	0.231418
1814.97	0.231149
1814.15	0.231017
1813.34	0.230856
1812.52	0.230538
1811.71	0.230092
1810.89	0.229432
1810.07	0.229444
1809.26	0.229289
1808.44	0.228711
1807.63	0.228494
1806.81	0.228392
1805.99	0.227571
1805.18	0.226814
1804.36	0.22657
1803.54	0.226134
1802.73	0.226256
1801.91	0.225789
1801.09	0.225819
1800.28	0.225795
1799.46	0.225673
1798.64	0.22577
1797.82	0.225892
1797.01	0.225903
1796.19	0.225813
1795.37	0.225334
1794.55	0.225183
1793.73	0.224952
1792.92	0.224767
1792.1	0.224626
1791.28	0.224221
1790.46	0.223886
1789.64	0.223975
1788.82	0.224148
1788	0.224551
1787.18	0.22527
1786.36	0.225676
1785.54	0.226218
1784.72	0.225634
1783.9	0.224923
1783.08	0.224838
1782.26	0.224574
1781.44	0.22463
1780.62	0.225217
1779.8	0.225658
1778.98	0.226323
1778.16	0.225784
1777.34	0.225408
1776.52	0.224841
1775.69	0.224521
1774.87	0.224537
1774.05	0.224628
1773.23	0.224988
1772.41	0.225011
1771.59	0.225406
1770.76	0.226077
1769.94	0.226062
1769.12	0.226183
1768.3	0.226233
1767.47	0.225881
1766.65	0.225506
1765.83	0.224565
1765	0.225034
1764.18	0.225446
1763.36	0.225654
1762.53	0.225895
1761.71	0.226118
1760.88	0.226246
1760.06	0.226193
1759.24	0.226131
1758.41	0.226379
1757.59	0.226404
1756.76	0.226393
1755.94	0.226261
1755.11	0.226125
1754.29	0.225902
1753.46	0.225789
1752.64	0.226216
1751.81	0.226386
1750.99	0.226746
1750.16	0.226666
1749.34	0.227055
1748.51	0.227102
1747.68	0.227149
1746.86	0.227352
1746.03	0.227562
1745.2	0.227309
1744.38	0.227091
1743.55	0.226487
1742.72	0.22677
1741.9	0.226755
1741.07	0.226741
1740.24	0.227068
1739.41	0.227269
1738.59	0.227269
1737.76	0.227283
1736.93	0.227455
1736.1	0.227766
1735.27	0.227716
1734.45	0.227562
1733.62	0.227503
1732.79	0.227492
1731.96	0.227276
1731.13	0.227101
1730.3	0.227067
1729.47	0.227196
1728.64	0.226958
1727.81	0.22717
1726.98	0.227462
1726.15	0.227886
1725.32	0.228335
1724.49	0.22833
1723.66	0.228082
1722.83	0.22826
1722	0.227582
1721.17	0.227713
1720.34	0.227978
1719.51	0.228253
1718.68	0.228582
1717.85	0.228426
1717.02	0.228409
1716.19	0.228291
1715.35	0.227929
1714.52	0.227685
1713.69	0.227699
1712.86	0.227936
1712.03	0.227953
1711.19	0.228079
1710.36	0.22829
1709.53	0.228472
1708.7	0.229049
1707.86	0.228885
1707.03	0.229177
1706.2	0.229051
1705.36	0.228742
1704.53	0.228961
1703.7	0.228746
1702.86	0.228944
1702.03	0.229367
1701.19	0.229217
1700.36	0.229603
1699.53	0.22976
1698.69	0.230104
1697.86	0.230426
1697.02	0.229749
1696.19	0.229589
1695.35	0.229487
1694.52	0.22942
1693.68	0.229695
1692.85	0.230108
1692.01	0.230139
1691.17	0.230125
1690.34	0.229879
1689.5	0.230172
1688.67	0.23035
1687.83	0.230572
1686.99	0.230927
1686.16	0.231009
1685.32	0.230878
1684.48	0.231327
1683.65	0.231655
1682.81	0.231994
1681.97	0.232627
1681.13	0.232825
1680.3	0.233523
1679.46	0.23358
1678.62	0.233763
1677.78	0.234322
1676.94	0.234757
1676.11	0.235069
1675.27	0.235865
1674.43	0.23609
1673.59	0.236497
1672.75	0.236562
1671.91	0.236944
1671.07	0.237642
1670.23	0.238421
1669.39	0.238894
1668.56	0.239449
1667.72	0.240023
1666.88	0.240837
1666.04	0.241542
1665.2	0.242079
1664.36	0.242303
1663.51	0.242704
1662.67	0.242616
1661.83	0.242737
1660.99	0.243287
1660.15	0.244171
1659.31	0.244758
1658.47	0.244909
1657.63	0.245033
1656.79	0.245296
1655.94	0.245387
1655.1	0.245715
1654.26	0.246507
1653.42	0.246891
1652.58	0.247218
1651.73	0.247374
1650.89	0.24749
1650.05	0.247226
1649.21	0.24674
1648.36	0.246461
1647.52	0.246516
1646.68	0.246105
1645.83	0.246237
1644.99	0.24614
1644.14	0.245902
1643.3	0.245667
1642.46	0.245437
1641.61	0.245264
1640.77	0.245216
1639.92	0.245348
1639.08	0.245633
1638.23	0.24527
1637.39	0.2451
1636.54	0.24529
1635.7	0.245352
1634.85	0.244614
1634.01	0.244296
1633.16	0.244409
1632.32	0.244518
1631.47	0.2444
1630.62	0.24454
1629.78	0.244824
1628.93	0.245294
1628.09	0.24498
1627.24	0.245151
1626.39	0.245946
1625.55	0.246313
1624.7	0.246338
1623.85	0.245997
1623	0.245661
1622.16	0.245796
1621.31	0.245764
1620.46	0.246146
1619.61	0.246812
1618.76	0.246716
1617.92	0.246821
1617.07	0.246581
1616.22	0.246451
1615.37	0.246541
1614.52	0.247455
1613.67	0.248059
1612.82	0.248967
1611.97	0.249178
1611.13	0.249865
1610.28	0.250707
1609.43	0.251464
1608.58	0.252176
1607.73	0.253155
1606.88	0.254165
1606.03	0.255492
1605.18	0.256637
1604.32	0.258176
1603.47	0.26015
1602.62	0.261884
1601.77	0.263438
1600.92	0.264835
1600.07	0.266751
1599.22	0.269012
1598.37	0.272352
1597.51	0.275566
1596.66	0.279456
1595.81	0.283307
1594.96	0.287464
1594.11	0.291081
1593.25	0.296154
1592.4	0.301736
1591.55	0.308671
1590.7	0.316442
1589.84	0.325234
1588.99	0.336108
1588.14	0.349288
1587.28	0.365221
1586.43	0.386222
1585.58	0.411491
1584.72	0.444223
1583.87	0.485268
1583.01	0.53335
1582.16	0.589996
1581.3	0.652597
1580.45	0.716903
1579.59	0.779879
1578.74	0.835654
1577.88	0.881568
1577.03	0.913567
1576.17	0.929822
1575.32	0.931678
1574.46	0.920949
1573.61	0.898135
1572.75	0.8675
1571.89	0.829985
1571.04	0.787625
1570.18	0.740391
1569.33	0.690769
1568.47	0.639317
1567.61	0.589301
1566.75	0.541482
1565.9	0.49788
1565.04	0.460832
1564.18	0.429018
1563.33	0.402255
1562.47	0.379806
1561.61	0.360458
1560.75	0.344202
1559.89	0.330632
1559.04	0.318993
1558.18	0.310529
1557.32	0.304192
1556.46	0.299764
1555.6	0.296839
1554.74	0.294383
1553.88	0.292214
1553.02	0.28973
1552.16	0.286673
1551.3	0.283779
1550.44	0.281326
1549.58	0.278671
1548.72	0.276137
1547.86	0.273479
1547	0.271007
1546.14	0.267563
1545.28	0.26481
1544.42	0.261733
1543.56	0.259407
1542.7	0.257537
1541.84	0.255765
1540.98	0.254681
1540.11	0.253806
1539.25	0.252168
1538.39	0.251185
1537.53	0.250084
1536.67	0.249573
1535.8	0.248986
1534.94	0.24836
1534.08	0.248018
1533.22	0.247702
1532.35	0.246685
1531.49	0.246288
1530.63	0.246233
1529.76	0.246161
1528.9	0.24563
1528.04	0.245496
1527.17	0.245351
1526.31	0.244901
1525.44	0.244065
1524.58	0.243886
1523.72	0.243874
1522.85	0.244061
1521.99	0.243684
1521.12	0.24367
1520.26	0.243251
1519.39	0.243173
1518.53	0.242605
1517.66	0.243018
1516.8	0.243289
1515.93	0.243551
1515.06	0.243433
1514.2	0.243011
1513.33	0.242673
1512.47	0.242733
1511.6	0.242236
1510.73	0.242076
1509.87	0.241862
1509	0.241608
1508.13	0.241915
1507.26	0.241906
1506.4	0.242395
1505.53	0.242941
1504.66	0.243284
1503.79	0.243182
1502.93	0.242998
1502.06	0.242779
1501.19	0.242661
1500.32	0.242592
1499.45	0.242743
1498.58	0.242944
1497.71	0.243215
1496.85	0.243554
1495.98	0.243858
1495.11	0.243869
1494.24	0.243621
1493.37	0.243936
1492.5	0.244362
1491.63	0.244441
1490.76	0.245091
1489.89	0.24516
1489.02	0.244799
1488.15	0.244384
1487.28	0.244083
1486.4	0.244218
1485.53	0.244927
1484.66	0.245314
1483.79	0.245772
1482.92	0.246318
1482.05	0.246279
1481.18	0.246836
1480.3	0.247309
1479.43	0.248311
1478.56	0.249385
1477.69	0.250226
1476.82	0.250881
1475.94	0.251377
1475.07	0.250863
1474.2	0.250046
1473.32	0.249124
1472.45	0.248492
1471.58	0.247587
1470.7	0.247149
1469.83	0.247132
1468.96	0.246591
1468.08	0.246471
1467.21	0.24611
1466.33	0.245705
1465.46	0.245363
1464.58	0.244446
1463.71	0.243866
1462.83	0.243702
1461.96	0.243523
1461.08	0.243405
1460.21	0.243558
1459.33	0.243399
1458.46	0.243342
1457.58	0.243196
1456.71	0.243248
1455.83	0.243847
1454.95	0.243953
1454.08	0.244069
1453.2	0.244587
1452.32	0.244141
1451.45	0.243241
1450.57	0.243055
1449.69	0.24326
1448.82	0.243291
1447.94	0.243305
1447.06	0.243623
1446.18	0.244118
1445.3	0.24387
1444.43	0.243104
1443.55	0.243089
1442.67	0.243536
1441.79	0.243138
1440.91	0.243912
1440.03	0.244399
1439.15	0.244817
1438.28	0.244997
1437.4	0.244647
1436.52	0.244309
1435.64	0.244502
1434.76	0.244241
1433.88	0.244657
1433	0.24467
1432.12	0.244728
1431.24	0.244615
1430.36	0.244659
1429.47	0.244885
1428.59	0.245463
1427.71	0.245413
1426.83	0.245637
1425.95	0.245446
1425.07	0.245174
1424.19	0.244696
1423.31	0.24456
1422.42	0.245055
1421.54	0.245275
1420.66	0.245374
1419.78	0.246166
1418.89	0.246647
1418.01	0.246588
1417.13	0.246848
1416.25	0.247006
1415.36	0.247086
1414.48	0.246941
1413.6	0.24666
1412.71	0.246724
1411.83	0.246978
1410.94	0.246771
1410.06	0.246915
1409.18	0.246902
1408.29	0.246875
1407.41	0.247174
1406.52	0.246943
1405.64	0.246685
1404.75	0.246239
1403.87	0.246185
1402.98	0.245912
1402.1	0.245917
1401.21	0.246462
1400.33	0.247057
1399.44	0.247512
1398.55	0.248016
1397.67	0.248494
1396.78	0.248756
1395.89	0.248957
1395.01	0.249265
1394.12	0.249305
1393.23	0.249511
1392.35	0.250439
1391.46	0.251249
1390.57	0.251787
1389.68	0.251761
1388.8	0.251911
1387.91	0.251711
1387.02	0.250747
1386.13	0.250485
1385.24	0.250541
1384.36	0.249982
1383.47	0.249283
1382.58	0.248729
1381.69	0.248357
1380.8	0.248081
1379.91	0.247686
1379.02	0.247688
1378.13	0.247985
1377.24	0.247634
1376.35	0.24755
1375.46	0.247278
1374.57	0.247213
1373.68	0.247161
1372.79	0.247156
1371.9	0.247035
1371.01	0.24771
1370.12	0.247876
1369.23	0.248444
1368.33	0.248823
1367.44	0.248984
1366.55	0.248724
1365.66	0.248353
1364.77	0.247852
1363.88	0.247851
1362.98	0.247716
1362.09	0.247493
1361.2	0.247343
1360.31	0.247639
1359.41	0.247828
1358.52	0.248131
1357.63	0.248514
1356.73	0.249004
1355.84	0.249319
1354.95	0.249454
1354.05	0.249048
1353.16	0.248618
1352.26	0.248279
1351.37	0.247717
1350.47	0.24771
1349.58	0.247767
1348.69	0.24806
1347.79	0.248284
1346.9	0.24808
1346	0.247548
1345.1	0.247106
1344.21	0.246632
1343.31	0.246638
1342.42	0.246608
1341.52	0.246681
1340.63	0.246467
1339.73	0.246395
1338.83	0.246148
1337.94	0.246381
1337.04	0.246539
1336.14	0.246137
1335.25	0.246258
1334.35	0.246245
1333.45	0.246241
1332.55	0.24613
1331.66	0.245716
1330.76	0.246025
1329.86	0.245493
1328.96	0.244725
1328.06	0.24479
1327.16	0.245098
1326.27	0.245584
1325.37	0.245655
1324.47	0.245959
1323.57	0.245948
1322.67	0.24575
1321.77	0.245933
1320.87	0.245948
1319.97	0.245784
1319.07	0.245645
1318.17	0.245195
1317.27	0.244988
1316.37	0.244702
1315.47	0.244756
1314.57	0.245106
1313.67	0.245129
1312.77	0.245518
1311.86	0.245829
1310.96	0.246032
1310.06	0.245639
1309.16	0.245705
1308.26	0.245804
1307.36	0.246504
1306.45	0.246958
1305.55	0.248173
1304.65	0.248557
1303.75	0.249552
1302.84	0.250653
1301.94	0.251608
1301.04	0.253196
1300.13	0.254806
1299.23	0.255787
1298.33	0.256637
1297.42	0.256306
1296.52	0.255936
1295.62	0.255164
1294.71	0.253656
1293.81	0.252652
1292.9	0.251277
1292	0.250086
1291.09	0.248826
1290.19	0.247779
1289.28	0.247061
1288.38	0.246732
1287.47	0.246576
1286.57	0.246349
1285.66	0.245732
1284.75	0.244718
1283.85	0.243562
1282.94	0.243696
1282.04	0.243839
1281.13	0.244566
1280.22	0.245338
1279.32	0.245896
1278.41	0.246412
1277.5	0.245683
1276.59	0.245719
1275.69	0.246474
1274.78	0.246931
1273.87	0.247465
1272.96	0.248753
1272.05	0.250132
1271.15	0.252064
1270.24	0.253153
1269.33	0.255249
1268.42	0.257189
1267.51	0.258469
1266.6	0.259341
1265.69	0.260693
1264.78	0.261614
1263.87	0.262555
1262.96	0.263211
1262.05	0.263962
1261.14	0.264402
1260.23	0.264328
1259.32	0.264257
1258.41	0.264022
1257.5	0.263765
1256.59	0.263465
1255.68	0.262654
1254.77	0.261361
1253.86	0.259931
1252.95	0.258005
1252.03	0.256225
1251.12	0.254147
1250.21	0.252921
1249.3	0.25157
1248.39	0.250627
1247.47	0.250043
1246.56	0.249579
1245.65	0.249198
1244.73	0.249095
1243.82	0.248144
1242.91	0.248042
1241.99	0.24737
1241.08	0.247006
1240.17	0.246729
1239.25	0.246838
1238.34	0.246791
1237.42	0.246582
1236.51	0.245741
1235.6	0.246029
1234.68	0.2455
1233.77	0.245052
1232.85	0.244863
1231.94	0.245134
1231.02	0.245236
1230.1	0.245032
1229.19	0.245125
1228.27	0.245426
1227.36	0.245282
1226.44	0.245868
1225.52	0.245792
1224.61	0.246382
1223.69	0.246472
1222.77	0.246486
1221.86	0.246674
1220.94	0.24613
1220.02	0.245947
1219.11	0.24572
1218.19	0.24532
1217.27	0.245475
1216.35	0.245068
1215.43	0.245496
1214.52	0.245633
1213.6	0.245602
1212.68	0.24606
1211.76	0.246239
1210.84	0.246377
1209.92	0.24635
1209	0.245986
1208.08	0.245922
1207.16	0.245682
1206.24	0.245669
1205.32	0.245719
1204.4	0.245927
1203.48	0.246061
1202.56	0.2465
1201.64	0.246415
1200.72	0.247092
1199.8	0.247499
1198.88	0.248207
1197.96	0.248584
1197.04	0.249536
1196.11	0.250926
1195.19	0.252616
1194.27	0.253842
1193.35	0.256594
1192.43	0.259882
1191.5	0.264273
1190.58	0.270553
1189.66	0.278769
1188.74	0.289525
1187.81	0.301718
1186.89	0.314822
1185.97	0.329558
1185.04	0.343986
1184.12	0.356967
1183.2	0.367893
1182.27	0.374729
1181.35	0.37788
1180.42	0.375509
1179.5	0.369749
1178.57	0.360772
1177.65	0.348989
1176.72	0.335623
1175.8	0.321271
1174.87	0.306843
1173.95	0.29381
1173.02	0.281835
1172.1	0.272898
1171.17	0.265832
1170.24	0.260022
1169.32	0.255825
1168.39	0.253233
1167.46	0.25166
1166.54	0.251098
1165.61	0.250726
1164.68	0.250907
1163.76	0.251463
1162.83	0.251065
1161.9	0.251023
1160.97	0.251246
1160.05	0.251328
1159.12	0.251149
1158.19	0.250962
1157.26	0.250993
1156.33	0.251359
1155.4	0.250927
1154.47	0.251346
1153.55	0.251696
1152.62	0.252302
1151.69	0.252558
1150.76	0.253005
1149.83	0.253727
1148.9	0.254406
1147.97	0.255101
1147.04	0.256667
1146.11	0.258485
1145.18	0.260388
1144.25	0.26185
1143.31	0.263342
1142.38	0.265121
1141.45	0.266008
1140.52	0.267493
1139.59	0.269008
1138.66	0.270755
1137.73	0.27269
1136.79	0.274297
1135.86	0.276665
1134.93	0.278862
1134	0.280675
1133.06	0.283123
1132.13	0.285909
1131.2	0.288147
1130.26	0.290547
1129.33	0.292788
1128.4	0.295537
1127.46	0.298036
1126.53	0.300578
1125.6	0.303169
1124.66	0.306351
1123.73	0.309962
1122.79	0.314581
1121.86	0.319399
1120.92	0.324241
1119.99	0.328716
1119.05	0.332631
1118.12	0.335904
1117.18	0.338616
1116.25	0.341785
1115.31	0.34469
1114.37	0.347016
1113.44	0.349469
1112.5	0.352822
1111.56	0.356707
1110.63	0.361739
1109.69	0.367372
1108.75	0.373527
1107.82	0.379098
1106.88	0.386003
1105.94	0.392519
1105	0.399912
1104.07	0.406645
1103.13	0.414437
1102.19	0.4231
1101.25	0.432932
1100.31	0.443191
1099.37	0.455249
1098.44	0.46576
1097.5	0.475369
1096.56	0.483089
1095.62	0.488727
1094.68	0.492658
1093.74	0.495199
1092.8	0.497599
1091.86	0.501629
1090.92	0.508987
1089.98	0.524602
1089.04	0.551664
1088.1	0.593753
1087.16	0.654651
1086.21	0.734778
1085.27	0.947796
1084.33	1
1083.39	0.920142
1082.45	0.743601
1081.51	0.510683
1080.56	0.270778
1079.62	0.079817
1078.68	0
1077.74	0.100996
1076.79	0.10094
1075.85	0.00421464
1074.91	0.0792762
1073.97	0.262667
1073.02	0.494138
1072.08	0.72003
1071.13	0.892553
1070.19	0.972669
1069.25	0.924381
1068.3	0.717994
1067.36	0.63312
1066.41	0.563875
1065.47	0.507212
1064.52	0.463426
1063.58	0.428772
1062.63	0.403427
1061.69	0.383273
1060.74	0.367335
1059.8	0.355124
1058.85	0.344352
1057.9	0.33445
1056.96	0.327481
1056.01	0.320335
1055.07	0.313748
1054.12	0.30747
1053.17	0.302126
1052.22	0.296867
1051.28	0.291584
1050.33	0.287391
1049.38	0.284161
1048.43	0.2807
1047.49	0.277579
1046.54	0.274939
1045.59	0.272781
1044.64	0.270954
1043.69	0.269791
1042.74	0.268716
1041.79	0.267401
1040.85	0.265612
1039.9	0.264025
1038.95	0.262491
1038	0.26089
1037.05	0.260064
1036.1	0.25915
1035.15	0.258115
1034.2	0.257258
1033.25	0.256839
1032.3	0.256172
1031.34	0.255996
1030.39	0.255604
1029.44	0.25497
1028.49	0.254091
1027.54	0.253071
1026.59	0.252357
1025.64	0.252322
1024.68	0.251713
1023.73	0.251715
1022.78	0.251505
1021.83	0.251364
1020.87	0.252154
1019.92	0.253188
1018.97	0.254975
1018.01	0.2577
1017.06	0.261194
1016.11	0.265473
1015.15	0.269479
1014.2	0.272666
1013.25	0.274286
1012.29	0.274455
1011.34	0.272605
1010.38	0.26898
1009.43	0.26449
1008.47	0.260275
1007.52	0.256566
1006.56	0.253702
1005.61	0.251923
1004.65	0.251413
1003.7	0.251137
1002.74	0.251
1001.78	0.25042
1000.83	0.250107
999.871	0.249413
998.914	0.248806
997.957	0.248696
997	0.248339
996.043	0.248066
995.086	0.247789
994.128	0.247287
993.17	0.246956
992.212	0.246043
991.254	0.24554
990.296	0.245655
989.338	0.245251
988.379	0.244698
987.421	0.24434
986.462	0.244415
985.503	0.244469
984.543	0.244507
983.584	0.244741
982.624	0.245337
981.665	0.2455
980.705	0.245331
979.744	0.244649
978.784	0.244566
977.824	0.244314
976.863	0.244651
975.902	0.244688
974.941	0.244927
973.98	0.245313
973.019	0.2455
972.057	0.245497
971.096	0.246086
970.134	0.246239
969.172	0.246766
968.21	0.246749
967.247	0.246992
966.285	0.247189
965.322	0.24804
964.359	0.248585
963.396	0.248906
962.433	0.249022
961.47	0.248555
960.506	0.248032
959.542	0.248006
958.578	0.247933
957.614	0.24846
956.65	0.247966
955.686	0.247709
954.721	0.24737
953.756	0.246889
952.791	0.246606
951.826	0.246935
950.861	0.247506
949.895	0.247882
948.93	0.247899
947.964	0.24769
946.998	0.247538
946.032	0.247478
945.065	0.247324
944.099	0.247312
943.132	0.247723
942.165	0.248128
941.198	0.248105
940.231	0.247621
939.264	0.247599
938.296	0.247155
937.328	0.245996
936.361	0.245588
935.392	0.245431
934.424	0.244932
933.456	0.244686
932.487	0.244575
931.518	0.244544
930.549	0.244734
929.58	0.244161
928.611	0.244425
927.641	0.244493
926.672	0.244336
925.702	0.244518
924.732	0.244398
923.762	0.244332
922.791	0.244705
921.821	0.244779
920.85	0.244904
919.879	0.24505
918.908	0.244795
917.937	0.244092
916.966	0.243606
915.994	0.243338
915.022	0.243004
914.05	0.243511
913.078	0.243803
912.106	0.243599
911.134	0.243199
910.161	0.243135
909.188	0.243467
908.215	0.24301
907.242	0.243166
906.269	0.243657
905.295	0.243945
904.321	0.243652
903.348	0.243428
902.373	0.243273
901.399	0.24365
900.425	0.243059
899.45	0.243167
898.476	0.242706
897.501	0.242893
896.526	0.243296
895.55	0.24368
894.575	0.243771
893.599	0.244631
892.623	0.244531
891.647	0.244312
890.671	0.243905
889.695	0.24342
888.718	0.243475
887.742	0.243189
886.765	0.243336
885.788	0.243374
884.811	0.243006
883.833	0.243289
882.856	0.243713
881.878	0.24377
880.9	0.244398
879.922	0.244823
878.944	0.245567
877.965	0.245614
876.987	0.245167
876.008	0.245079
875.029	0.244769
874.05	0.244403
873.07	0.244375
872.091	0.244628
871.111	0.244962
870.131	0.245108
869.151	0.245414
868.171	0.24608
867.191	0.246186
866.21	0.246071
865.229	0.246488
864.248	0.246481
863.267	0.24649
862.286	0.246743
861.304	0.246702
860.323	0.247112
859.341	0.246988
858.359	0.246667
857.377	0.246786
856.394	0.246886
855.412	0.247383
854.429	0.24767
853.446	0.247283
852.463	0.247272
851.48	0.247059
850.496	0.247145
849.513	0.247238
848.529	0.247886
847.545	0.248021
846.561	0.248076
845.577	0.247925
844.592	0.24815
843.607	0.248112
842.623	0.248923
841.638	0.248795
840.652	0.24891
839.667	0.249436
838.681	0.250105
837.696	0.250824
836.71	0.251939
835.724	0.253064
834.737	0.254431
833.751	0.255595
832.764	0.256369
831.777	0.258055
830.79	0.258351
829.803	0.25888
828.816	0.259222
827.828	0.259664
826.841	0.259391
825.853	0.259629
824.865	0.259487
823.876	0.25944
822.888	0.25895
821.899	0.258889
820.911	0.258896
819.922	0.258605
818.932	0.258029
817.943	0.257403
816.954	0.256926
815.964	0.256306
814.974	0.256127
813.984	0.255819
812.994	0.255568
812.003	0.255391
811.013	0.254896
810.022	0.253979
809.031	0.253237
808.04	0.252726
807.048	0.251824
806.057	0.251287
805.065	0.25039
804.073	0.249813
803.081	0.249554
802.089	0.249024
801.097	0.248895
800.104	0.248811
799.111	0.248532
798.118	0.248892
797.125	0.248901
796.132	0.248309
795.139	0.248402
794.145	0.247792
793.151	0.248094
792.157	0.247814
791.163	0.248039
790.168	0.248897
789.174	0.249177
788.179	0.248841
787.184	0.249023
786.189	0.249039
785.194	0.249459
784.198	0.249014
783.203	0.249093
782.207	0.249215
781.211	0.248905
780.215	0.249006
779.218	0.249248
778.222	0.249432
777.225	0.249726
776.228	0.249897
775.231	0.250223
774.234	0.250064
773.236	0.2498
772.238	0.249926
771.241	0.249664
770.243	0.249751
769.244	0.250226
768.246	0.251003
767.247	0.251488
766.249	0.251636
765.25	0.25177
764.251	0.252045
763.251	0.252369
762.252	0.252849
761.252	0.253822
760.252	0.255233
759.252	0.256458
758.252	0.258158
757.252	0.259942
756.251	0.262487
755.25	0.267386
754.249	0.274568
753.248	0.286323
752.247	0.302784
751.246	0.324552
750.244	0.351249
749.242	0.382016
748.24	0.416107
747.238	0.451842
746.235	0.486688
745.233	0.518769
744.23	0.544639
743.227	0.560727
742.224	0.563309
741.221	0.552644
740.217	0.52903
739.213	0.494885
738.209	0.45436
737.205	0.413017
736.201	0.374647
735.197	0.340904
734.192	0.31358
733.187	0.293722
732.182	0.279744
731.177	0.270495
730.172	0.264604
729.166	0.261397
728.161	0.258915
727.155	0.256824
726.149	0.255572
725.142	0.254493
724.136	0.253813
723.129	0.253067
722.123	0.252803
721.116	0.253739
720.108	0.255042
719.101	0.256782
718.093	0.259301
717.086	0.261619
716.078	0.264344
715.07	0.266087
714.061	0.26774
713.053	0.26999
712.044	0.271454
711.035	0.272031
710.026	0.272914
709.017	0.272764
708.008	0.272818
706.998	0.272332
705.988	0.271302
704.979	0.270361
703.968	0.268755
702.958	0.266135
701.948	0.263956
700.937	0.261691
699.926	0.259891
698.915	0.258655
697.904	0.257269
696.892	0.256306
695.881	0.254962
694.869	0.253361
693.857	0.252421
692.845	0.251797
691.832	0.251465
690.82	0.251314
689.807	0.250913
688.794	0.250257
687.781	0.249924
686.768	0.249681
685.754	0.249317
684.741	0.249131
683.727	0.24888
682.713	0.24864
681.698	0.248435
680.684	0.248521
679.669	0.248821
678.655	0.248922
677.64	0.249233
676.625	0.249369
675.609	0.249266
674.594	0.249474
673.578	0.249307
672.562	0.248982
671.546	0.248566
670.53	0.248408
669.513	0.248443
668.497	0.248418
667.48	0.248671
666.463	0.248726
665.446	0.24836
664.428	0.248159
663.411	0.248377
662.393	0.248446
661.375	0.248698
660.357	0.24863
659.338	0.248869
658.32	0.248369
657.301	0.247418
656.282	0.247538
655.263	0.247654
654.244	0.24789
653.224	0.248284
652.205	0.247928
651.185	0.248186
650.165	0.247664
649.145	0.247297
648.124	0.247569
647.104	0.247861
646.083	0.248784
645.062	0.249607
644.041	0.250497
643.02	0.251312
641.998	0.251672
640.976	0.251793
639.954	0.25143
638.932	0.252136
637.91	0.255685
636.888	0.263908
635.865	0.2813
634.842	0.308007
633.819	0.342108
632.796	0.376679
631.772	0.403093
630.749	0.413011
629.725	0.403706
628.701	0.377876
627.677	0.344538
626.653	0.312438
625.628	0.287094
624.603	0.270942
623.578	0.263016
622.553	0.258816
621.528	0.256359
620.503	0.25444
619.477	0.252795
618.451	0.251743
617.425	0.250749
616.399	0.250459
615.372	0.250739
614.346	0.250696
613.319	0.250703
612.292	0.250753
611.265	0.250577
610.237	0.250544
609.21	0.250147
608.182	0.250184
607.154	0.25033
606.126	0.250542
605.098	0.250966
604.069	0.251483
603.04	0.251383
602.011	0.251266
600.982	0.250894
599.953	0.250871
598.924	0.250519
597.894	0.250276
596.864	0.249939
595.834	0.249896
594.804	0.249549
593.773	0.249639
592.743	0.250415
591.712	0.251159
590.681	0.251302
589.65	0.251412
588.619	0.251016
587.587	0.250735
586.555	0.250425
585.523	0.250484
584.491	0.250238
583.459	0.250192
582.426	0.250197
581.394	0.250301
580.361	0.250378
579.328	0.250616
578.294	0.250789
577.261	0.251419
576.227	0.251747
575.193	0.252872
574.159	0.254629
573.125	0.256684
572.091	0.258734
571.056	0.261157
570.021	0.263204
568.986	0.265774
567.951	0.2676
566.916	0.269313
565.88	0.270191
564.844	0.271363
563.808	0.271759
562.772	0.272185
561.736	0.272168
560.699	0.272822
559.663	0.272232
558.626	0.272422
557.589	0.271907
556.551	0.27243
555.514	0.272698
554.476	0.273072
553.438	0.273431
552.4	0.273559
551.362	0.27318
550.323	0.273293
549.285	0.272775
548.246	0.272356
547.207	0.271619
546.168	0.270556
545.128	0.269359
544.089	0.268063
543.049	0.266546
542.009	0.265162
540.969	0.263919
539.928	0.262512
538.888	0.261505
537.847	0.260324
536.806	0.259298
535.765	0.259251
534.723	0.258476
533.682	0.258635
532.64	0.259112
531.598	0.259733
530.556	0.260442
529.514	0.260279
528.471	0.25994
527.429	0.259926
526.386	0.259736
525.343	0.26008
524.299	0.260277
523.256	0.260921
522.212	0.260915
521.168	0.260787
520.124	0.260823
519.08	0.260633
518.036	0.260687
516.991	0.260247
515.946	0.259744
514.901	0.259144
513.856	0.258439
512.81	0.258364
511.765	0.257937
510.719	0.257749
509.673	0.257467
508.627	0.256998
507.58	0.257032
506.534	0.25631
505.487	0.255702
504.44	0.255732
503.393	0.255239
502.345	0.255017
501.298	0.254922
500.25	0.255249
499.202	0.255827
498.154	0.255666
497.106	0.255531
496.057	0.255549
495.008	0.254778
493.96	0.253977
492.91	0.253632
491.861	0.253503
490.812	0.25318
489.762	0.253444
488.712	0.253954
487.662	0.253687
486.612	0.253916
485.561	0.254357
484.51	0.254339
483.46	0.254177
482.408	0.253146
481.357	0.253149
480.306	0.252567
479.254	0.251348
478.202	0.251038
477.15	0.250433
476.098	0.250077
475.045	0.249554
473.993	0.24877
472.94	0.248726
471.887	0.248965
470.834	0.248464
469.78	0.249102
468.727	0.249671
467.673	0.250188
466.619	0.250193
465.565	0.250816
464.51	0.251136
463.456	0.251751
462.401	0.25137
461.346	0.252059
460.291	0.2526
459.235	0.252764
458.18	0.253314
457.124	0.254803
456.068	0.256161
455.012	0.25775
453.955	0.259151
452.899	0.260795
451.842	0.262212
450.785	0.263825
449.728	0.265345
448.67	0.266914
447.613	0.268399
446.555	0.269378
445.497	0.270616
444.439	0.271475
443.38	0.271669
442.322	0.272348
441.263	0.272382
440.204	0.272413
439.145	0.272411
438.086	0.272467
437.026	0.272633
435.966	0.272898
434.907	0.272814
433.846	0.2733
432.786	0.272905
431.725	0.27215
430.665	0.271716
429.604	0.271643
428.543	0.271069
427.481	0.271698
426.42	0.271547
425.358	0.272402
424.296	0.272125
423.234	0.271477
422.172	0.271744
421.109	0.272016
420.047	0.272498
418.984	0.273876
417.92	0.274315
416.857	0.276121
415.794	0.276815
414.73	0.277526
413.666	0.279217
412.602	0.280698
411.538	0.283095
410.473	0.285292
409.408	0.287225
408.343	0.288904
407.278	0.289451
406.213	0.289427
405.148	0.289046
404.082	0.287715
403.016	0.286656
401.95	0.285038
400.883	0.283012
399.817	0.280349
398.75	0.277818
397.683	0.274723
396.616	0.272402
395.549	0.27016
394.481	0.268626
393.414	0.267526
392.346	0.266391
391.278	0.264731
390.209	0.263804
389.141	0.261964
388.072	0.26115
387.003	0.260588
385.934	0.260465
384.865	0.260112
383.795	0.259726
382.726	0.25879
381.656	0.258525
380.586	0.257704
379.515	0.257174
378.445	0.257018
377.374	0.256952
376.303	0.256349
375.232	0.255708
374.161	0.255598
373.089	0.255923
372.017	0.256474
370.946	0.256727
369.873	0.256927
368.801	0.256719
367.729	0.256147
366.656	0.25515
365.583	0.254901
364.51	0.254867
363.436	0.25519
362.363	0.254971
361.289	0.254618
360.215	0.253803
359.141	0.253158
358.067	0.252527
356.992	0.252147
355.917	0.252564
354.842	0.253834
353.767	0.253998
352.692	0.25466
351.616	0.255384
350.541	0.256309
349.465	0.257145
348.388	0.257842
347.312	0.259153
346.236	0.260142
345.159	0.260674
344.082	0.260879
343.005	0.261746
341.927	0.262724
340.85	0.263534
339.772	0.265103
338.694	0.266098
337.616	0.266998
336.537	0.267795
335.459	0.268284
334.38	0.269742
333.301	0.271146
332.222	0.273116
331.142	0.275528
330.063	0.277344
328.983	0.279208
327.903	0.280303
326.823	0.281565
325.742	0.28273
324.662	0.283945
323.581	0.285584
322.5	0.287037
321.418	0.289254
320.337	0.291441
319.255	0.293431
318.173	0.29522
317.091	0.296983
316.009	0.298238
314.927	0.298984
313.844	0.298907
312.761	0.299434
311.678	0.299397
310.595	0.298949
309.511	0.298184
308.428	0.297616
307.344	0.2974
306.26	0.297018
305.175	0.296166
304.091	0.296124
303.006	0.295265
301.921	0.294449
300.836	0.293372
299.751	0.29253
298.665	0.291655
297.579	0.291027
296.493	0.289941
295.407	0.289997
294.321	0.289342
293.234	0.289487
292.148	0.289714
291.061	0.289621
289.974	0.289447
288.886	0.29007
287.799	0.290349
286.711	0.291349
285.623	0.292091
284.535	0.293423
283.446	0.294956
282.358	0.295836
281.269	0.296613
280.18	0.297383
279.09	0.297503
278.001	0.297554
276.911	0.298347
275.822	0.299435
274.731	0.300467
273.641	0.301238
272.551	0.302112
271.46	0.302757
270.369	0.303005
269.278	0.303982
268.187	0.30541
267.095	0.306213
266.004	0.306735
264.912	0.307527
263.82	0.307795
262.727	0.307287
261.635	0.307
260.542	0.306991
259.449	0.306983
258.356	0.306408
257.262	0.305948
256.169	0.305861
255.075	0.304882
253.981	0.303853
252.887	0.302926
251.793	0.301491
250.698	0.300109
249.603	0.298168
248.508	0.295858
247.413	0.293371
246.317	0.290082
245.222	0.287058
244.126	0.284006
243.03	0.280661
241.934	0.277387
240.837	0.274758
239.741	0.273021
238.644	0.271533
237.547	0.270431
236.449	0.26961
235.352	0.26905
234.254	0.26862
233.156	0.267484
232.058	0.266727
230.96	0.266971
229.861	0.266924
228.762	0.267523
227.663	0.267585
226.564	0.268194
225.465	0.269137
224.365	0.26944
223.265	0.269965
222.165	0.271038
221.065	0.271738
219.965	0.273076
218.864	0.273743
217.763	0.274383
216.662	0.274947
215.561	0.275763
214.459	0.276596
213.358	0.277832
212.256	0.279206
211.154	0.280677
210.051	0.282127
208.949	0.282946
207.846	0.28407
206.743	0.2852
205.64	0.28606
204.537	0.287281
203.433	0.288253
202.329	0.289332
201.225	0.291437
200.121	0.292841
199.017	0.294232
197.912	0.295509
196.807	0.29657
195.702	0.297632
194.597	0.298124
193.491	0.298949
192.386	0.300058
191.28	0.301167
190.174	0.302128
189.067	0.303431
187.961	0.305399
186.854	0.307663
185.747	0.30959
184.64	0.311935
183.533	0.314704
182.425	0.317459
181.317	0.320356
180.209	0.322937
179.101	0.326232
177.993	0.330117
176.884	0.334203
175.775	0.338904
174.666	0.343633
173.557	0.347282
172.448	0.351197
171.338	0.354197
170.228	0.356686
169.118	0.35833
168.008	0.358438
166.897	0.358705
165.786	0.356759
164.675	0.354054
163.564	0.351332
162.453	0.348799
161.341	0.346762
160.229	0.345441
159.117	0.345855
158.005	0.347581
156.893	0.3495
155.78	0.352488
154.667	0.355146
153.554	0.3577
152.441	0.360563
151.327	0.36477
150.214	0.369477
149.1	0.374053
147.986	0.379421
146.871	0.384546
145.757	0.389613
144.642	0.394749
143.527	0.400406
142.412	0.407081
141.296	0.413408
140.181	0.419591
139.065	0.426291
137.949	0.432708
136.833	0.439863
135.716	0.447172
134.599	0.45415
133.482	0.46162
132.365	0.469112
131.248	0.476257
130.13	0.484157
129.013	0.491893
127.895	0.500519
126.777	0.509151
125.658	0.517764
124.54	0.527935
123.421	0.538004
122.302	0.549158
121.182	0.560388
120.063	0.572019
118.943	0.584234
117.823	0.596811
116.703	0.609009
115.583	0.621528
114.462	0.633593
113.342	0.646077
112.221	0.657212
111.1	0.666149
109.978	0.672741
108.857	0.676038
107.735	0.676844
106.613	0.675342
105.49	0.672614
104.368	0.66815
103.245	0.663305
102.122	0.65835
100.999	0.654386
